EXPLAIN
TAG	CHRONOA
TITLE	LABEL	Chronoamperometry Scan	Test Identifier
DATE	LABEL	31/5/2023	Date
TIME	LABEL	14:15:38	Time
NOTES	NOTES	1	Notes...
	
NOMAD
SAMPLEID	 LABEL	CE-NOME_proj_MiGo_0000
ENVIRONMENTID	 LABEL	CE-NOME_proj_MiGo_0001
ECSETUPID	 LABEL	CE-NOME_proj_MiGo_0002
PSTAT	PSTAT	Sparks-39034	Potentiostat
VPRESTEP	POTEN	0,00000E+000	F	Pre-step Voltage (V)
TPRESTEP	QUANT	5,00000E-001	Pre-step Delay Time (s)
VSTEP1	POTEN	5,00000E-001	F	Step 1 Voltage (V)
TSTEP1	QUANT	5,00000E+000	Step 1 Time (s)
VSTEP2	POTEN	1,00000E-001	F	Step 2 Voltage (V)
TSTEP2	QUANT	5,00000E+000	Step 2 Time (s)
SAMPLETIME	QUANT	1,00000E-001	Sample Period (s)
DECIMATE	TOGGLE	F	Decimate
ILIMIT	QUANT	1,00000E+001	Limit I (mA/cm^2)
IMODE	SELECTOR	0	I/E Range Mode
IRANGE	QUANT	3,00000E-001	Max Current (mA)
EQDELAY	QUANT	0,00000E+000	Equil. Time (s)
SAMPLINGMODE	SELECTOR	1	Sampling Mode
AREA	QUANT	1,00000E+000	Sample Area (cm^2)
IRCOMP	SELECTOR	0	IRComp
PFCOR	QUANT	5,00000E+001	PF Corr. (ohm)
ELECTRODETYPE	SELECTOR	0	Electrode Type
STRIPPING	TOGGLE	F	Used for Stripping
SEQUENCER	TOGGLE	TRUE	Run as Sequence
PSTATMODEL	IQUANT	7	Pstat Model
PSTATSECTION	LABEL	REF600P-39034	Pstat Section
PSTATSERIALNO	LABEL	39034	Pstat Serial Number
CTRLMODE	IQUANT	1	Control Mode
ELECTROMETER	IQUANT	0	RE=0 or CS=1
IESTAB	IQUANT	2	I/E Stability
CASPEED	IQUANT	3	Control Amp Speed
CONVENTION	IQUANT	1	Current Convention
ICHRANGE	IQUANT	2	Ich Range
ICHRANGEMODE	TOGGLE	F	Ich Auto Range
ICHOFFSETENABLE	TOGGLE	F	Ich Offset Enable
ICHOFFSET	QUANT	0	Ich Offset (V)
ICHFILTER	IQUANT	2	Ich Filter
VCHRANGE	IQUANT	2	Vch Range
VCHRANGEMODE	TOGGLE	F	Vch Auto Range
VCHOFFSETENABLE	TOGGLE	F	Vch Offset Enable
VCHOFFSET	QUANT	0	Vch Offset (V)
VCHFILTER	IQUANT	2	Vch Filter
ACHRANGE	IQUANT	2	Ach Range
ACHOFFSETENABLE	TOGGLE	F	Ach Offset Enable
ACHOFFSET	QUANT	0	Ach Offset (V)
ACHFILTER	IQUANT	2	Ach Filter
IERANGELOWERLIMIT	IQUANT	1	I/E Range Lower Limit
IERANGEMODE	TOGGLE	T	I/E AutoRange
IERANGE	IQUANT	8	I/E Range
POSFEEDENABLE	TOGGLE	F	Positive Feedback IR Comp
POSFEEDRESISTANCE	QUANT	0	Positive Feedback Resistance (ohm)
ACHSELECT	IQUANT	0	Ach Select
SENSECABLEID	IQUANT	13	Sense Cable ID
PWRCABLEID	IQUANT	13	Power Cable ID
DCCALDATE	LABEL		DC Calibration Date
ACCALDATE	LABEL		AC Calibration Date
THERMOSELECT	IQUANT	1	Thermo Select
FRAMEWORKVERSION	LABEL	7.9.0	Framework Version
INSTRUMENTVERSION	LABEL	4.60	Instrument Version
CURVE	TABLE	105
	Pt	T	Vf	Im	Vu	Sig	Ach	IERange	Over	Temp
	#	s	V vs. Ref.	A	V	V	V	#	bits	deg C
	0	-0,4	-2,71300E-004	-9,19035E-008	0,00000E+000	0,00000E+000	3,56800E-004	8	...........	-327,67
	1	-0,3	-2,65300E-004	-1,95767E-007	0,00000E+000	0,00000E+000	2,64000E-004	7	...........	-327,67
	2	-0,2	-2,53500E-004	-1,95008E-007	0,00000E+000	0,00000E+000	3,42000E-004	6	...........	-327,67
	3	-0,1	-1,85800E-004	-1,55465E-007	0,00000E+000	0,00000E+000	2,67200E-004	5	......s....	-327,67
	4	0	-1,84200E-004	-1,55855E-007	0,00000E+000	0,00000E+000	3,45800E-004	5	...........	-327,67
	5	0,1	4,98515E-001	6,55364E-007	0,00000E+000	5,00000E-001	2,61200E-004	5	....ih.....	-327,67
	6	0,2	4,98513E-001	6,55423E-006	0,00000E+000	5,00000E-001	3,35400E-004	6	....ih.....	-327,67
	7	0,3	4,98738E-001	6,55429E-005	0,00000E+000	5,00000E-001	2,45800E-004	7	....ih.....	-327,67
	8	0,4	4,99649E-001	2,50168E-004	0,00000E+000	5,00000E-001	3,33800E-004	8	...........	-327,67
	9	0,5	4,99656E-001	2,50165E-004	0,00000E+000	5,00000E-001	2,65600E-004	8	...........	-327,67
	10	0,6	4,99655E-001	2,50163E-004	0,00000E+000	5,00000E-001	3,40200E-004	8	...........	-327,67
	11	0,7	4,99647E-001	2,50164E-004	0,00000E+000	5,00000E-001	2,40000E-004	8	...........	-327,67
	12	0,8	4,99653E-001	2,50164E-004	0,00000E+000	5,00000E-001	3,33400E-004	8	...........	-327,67
	13	0,9	4,99658E-001	2,50166E-004	0,00000E+000	5,00000E-001	2,66200E-004	8	...........	-327,67
	14	1	4,99650E-001	2,50164E-004	0,00000E+000	5,00000E-001	3,54200E-004	8	...........	-327,67
	15	1,1	4,99653E-001	2,50160E-004	0,00000E+000	5,00000E-001	2,61000E-004	8	...........	-327,67
	16	1,2	4,99654E-001	2,50162E-004	0,00000E+000	5,00000E-001	3,48600E-004	8	...........	-327,67
	17	1,3	4,99654E-001	2,50161E-004	0,00000E+000	5,00000E-001	2,60200E-004	8	...........	-327,67
	18	1,4	4,99652E-001	2,50161E-004	0,00000E+000	5,00000E-001	3,38600E-004	8	...........	-327,67
	19	1,5	4,99654E-001	2,50159E-004	0,00000E+000	5,00000E-001	2,57600E-004	8	...........	-327,67
	20	1,6	4,99649E-001	2,50156E-004	0,00000E+000	5,00000E-001	3,41600E-004	8	...........	-327,67
	21	1,7	4,99652E-001	2,50156E-004	0,00000E+000	5,00000E-001	2,51000E-004	8	...........	-327,67
	22	1,8	4,99659E-001	2,50161E-004	0,00000E+000	5,00000E-001	3,33200E-004	8	...........	-327,67
	23	1,9	4,99653E-001	2,50156E-004	0,00000E+000	5,00000E-001	2,58400E-004	8	...........	-327,67
	24	2	4,99652E-001	2,50157E-004	0,00000E+000	5,00000E-001	3,44000E-004	8	...........	-327,67
	25	2,1	4,99651E-001	2,50159E-004	0,00000E+000	5,00000E-001	2,52400E-004	8	...........	-327,67
	26	2,2	4,99649E-001	2,50159E-004	0,00000E+000	5,00000E-001	3,25000E-004	8	...........	-327,67
	27	2,3	4,99660E-001	2,50161E-004	0,00000E+000	5,00000E-001	2,54800E-004	8	...........	-327,67
	28	2,4	4,99649E-001	2,50158E-004	0,00000E+000	5,00000E-001	3,44400E-004	8	...........	-327,67
	29	2,5	4,99654E-001	2,50156E-004	0,00000E+000	5,00000E-001	2,59000E-004	8	...........	-327,67
	30	2,6	4,99656E-001	2,50157E-004	0,00000E+000	5,00000E-001	3,33200E-004	8	...........	-327,67
	31	2,7	4,99653E-001	2,50156E-004	0,00000E+000	5,00000E-001	2,59000E-004	8	...........	-327,67
	32	2,8	4,99653E-001	2,50155E-004	0,00000E+000	5,00000E-001	3,36600E-004	8	...........	-327,67
	33	2,9	4,99656E-001	2,50162E-004	0,00000E+000	5,00000E-001	2,64200E-004	8	...........	-327,67
	34	3	4,99659E-001	2,50159E-004	0,00000E+000	5,00000E-001	3,38600E-004	8	...........	-327,67
	35	3,1	4,99652E-001	2,50162E-004	0,00000E+000	5,00000E-001	2,66800E-004	8	...........	-327,67
	36	3,2	4,99649E-001	2,50160E-004	0,00000E+000	5,00000E-001	3,51000E-004	8	...........	-327,67
	37	3,3	4,99661E-001	2,50158E-004	0,00000E+000	5,00000E-001	2,55000E-004	8	...........	-327,67
	38	3,4	4,99657E-001	2,50159E-004	0,00000E+000	5,00000E-001	3,51400E-004	8	...........	-327,67
	39	3,5	4,99661E-001	2,50163E-004	0,00000E+000	5,00000E-001	2,57800E-004	8	...........	-327,67
	40	3,6	4,99658E-001	2,50164E-004	0,00000E+000	5,00000E-001	3,44000E-004	8	...........	-327,67
	41	3,7	4,99655E-001	2,50159E-004	0,00000E+000	5,00000E-001	2,49800E-004	8	...........	-327,67
	42	3,8	4,99657E-001	2,50161E-004	0,00000E+000	5,00000E-001	3,36800E-004	8	...........	-327,67
	43	3,9	4,99657E-001	2,50163E-004	0,00000E+000	5,00000E-001	2,59600E-004	8	...........	-327,67
	44	4	4,99658E-001	2,50162E-004	0,00000E+000	5,00000E-001	3,45000E-004	8	...........	-327,67
	45	4,1	4,99666E-001	2,50165E-004	0,00000E+000	5,00000E-001	2,54400E-004	8	...........	-327,67
	46	4,2	4,99656E-001	2,50163E-004	0,00000E+000	5,00000E-001	3,22000E-004	8	...........	-327,67
	47	4,3	4,99658E-001	2,50162E-004	0,00000E+000	5,00000E-001	2,53800E-004	8	...........	-327,67
	48	4,4	4,99658E-001	2,50163E-004	0,00000E+000	5,00000E-001	3,36600E-004	8	...........	-327,67
	49	4,5	4,99656E-001	2,50161E-004	0,00000E+000	5,00000E-001	2,43800E-004	8	...........	-327,67
	50	4,6	4,99655E-001	2,50161E-004	0,00000E+000	5,00000E-001	3,38200E-004	8	...........	-327,67
	51	4,7	4,99662E-001	2,50160E-004	0,00000E+000	5,00000E-001	2,53000E-004	8	...........	-327,67
	52	4,8	4,99658E-001	2,50157E-004	0,00000E+000	5,00000E-001	3,32400E-004	8	...........	-327,67
	53	4,9	4,99658E-001	2,50155E-004	0,00000E+000	5,00000E-001	2,65600E-004	8	...........	-327,67
	54	5	4,99656E-001	2,50157E-004	0,00000E+000	5,00000E-001	3,22400E-004	8	...........	-327,67
	55	5,1	9,97283E-002	4,99543E-005	0,00000E+000	1,00000E-001	2,47400E-004	8	...........	-327,67
	56	5,2	9,97254E-002	4,99539E-005	0,00000E+000	1,00000E-001	3,43000E-004	8	...........	-327,67
	57	5,3	9,97230E-002	4,99573E-005	0,00000E+000	1,00000E-001	2,50800E-004	8	...........	-327,67
	58	5,4	9,97239E-002	4,99527E-005	0,00000E+000	1,00000E-001	3,24800E-004	8	...........	-327,67
	59	5,5	9,97249E-002	4,99567E-005	0,00000E+000	1,00000E-001	2,47600E-004	8	...........	-327,67
	60	5,6	9,97237E-002	4,99541E-005	0,00000E+000	1,00000E-001	3,36400E-004	8	...........	-327,67
	61	5,7	9,97250E-002	4,99554E-005	0,00000E+000	1,00000E-001	2,50600E-004	8	...........	-327,67
	62	5,8	9,97290E-002	4,99566E-005	0,00000E+000	1,00000E-001	3,39000E-004	8	...........	-327,67
	63	5,9	9,97249E-002	4,99558E-005	0,00000E+000	1,00000E-001	2,57600E-004	8	...........	-327,67
	64	6	9,97219E-002	4,99574E-005	0,00000E+000	1,00000E-001	3,39000E-004	8	...........	-327,67
	65	6,1	9,97286E-002	4,99589E-005	0,00000E+000	1,00000E-001	2,56600E-004	8	...........	-327,67
	66	6,2	9,97231E-002	4,99567E-005	0,00000E+000	1,00000E-001	3,34800E-004	8	...........	-327,67
	67	6,3	9,97392E-002	4,99570E-005	0,00000E+000	1,00000E-001	2,49400E-004	8	...........	-327,67
	68	6,4	9,97248E-002	4,99596E-005	0,00000E+000	1,00000E-001	3,42000E-004	8	...........	-327,67
	69	6,5	9,97247E-002	4,99567E-005	0,00000E+000	1,00000E-001	2,50800E-004	8	...........	-327,67
	70	6,6	9,97207E-002	4,99590E-005	0,00000E+000	1,00000E-001	3,36800E-004	8	...........	-327,67
	71	6,7	9,97276E-002	4,99584E-005	0,00000E+000	1,00000E-001	2,45000E-004	8	...........	-327,67
	72	6,8	9,97279E-002	4,99564E-005	0,00000E+000	1,00000E-001	3,41600E-004	8	...........	-327,67
	73	6,9	9,97293E-002	4,99591E-005	0,00000E+000	1,00000E-001	2,46000E-004	8	...........	-327,67
	74	7	9,97280E-002	4,99604E-005	0,00000E+000	1,00000E-001	3,34800E-004	8	...........	-327,67
	75	7,1	9,97260E-002	4,99576E-005	0,00000E+000	1,00000E-001	2,59200E-004	8	...........	-327,67
	76	7,2	9,97323E-002	4,99591E-005	0,00000E+000	1,00000E-001	3,36800E-004	8	...........	-327,67
	77	7,3	9,97274E-002	4,99566E-005	0,00000E+000	1,00000E-001	2,33600E-004	8	...........	-327,67
	78	7,4	9,97256E-002	4,99572E-005	0,00000E+000	1,00000E-001	3,36600E-004	8	...........	-327,67
	79	7,5	9,97243E-002	4,99578E-005	0,00000E+000	1,00000E-001	2,51600E-004	8	...........	-327,67
	80	7,6	9,97254E-002	4,99607E-005	0,00000E+000	1,00000E-001	3,30600E-004	8	...........	-327,67
	81	7,7	9,97295E-002	4,99574E-005	0,00000E+000	1,00000E-001	2,42800E-004	8	...........	-327,67
	82	7,8	9,97286E-002	4,99558E-005	0,00000E+000	1,00000E-001	3,30600E-004	8	...........	-327,67
	83	7,9	9,97338E-002	4,99553E-005	0,00000E+000	1,00000E-001	2,46000E-004	8	...........	-327,67
	84	8	9,97321E-002	4,99579E-005	0,00000E+000	1,00000E-001	3,33800E-004	8	...........	-327,67
	85	8,1	9,97275E-002	4,99541E-005	0,00000E+000	1,00000E-001	2,42400E-004	8	...........	-327,67
	86	8,2	9,97272E-002	4,99543E-005	0,00000E+000	1,00000E-001	3,37400E-004	8	...........	-327,67
	87	8,3	9,97282E-002	4,99567E-005	0,00000E+000	1,00000E-001	2,46000E-004	8	...........	-327,67
	88	8,4	9,97281E-002	4,99567E-005	0,00000E+000	1,00000E-001	3,33200E-004	8	...........	-327,67
	89	8,5	9,97262E-002	4,99592E-005	0,00000E+000	1,00000E-001	2,52000E-004	8	...........	-327,67
	90	8,6	9,97299E-002	4,99568E-005	0,00000E+000	1,00000E-001	3,26800E-004	8	...........	-327,67
	91	8,7	9,97259E-002	4,99544E-005	0,00000E+000	1,00000E-001	2,39600E-004	8	...........	-327,67
	92	8,8	9,97248E-002	4,99553E-005	0,00000E+000	1,00000E-001	3,33200E-004	8	...........	-327,67
	93	8,9	9,97288E-002	4,99555E-005	0,00000E+000	1,00000E-001	2,34400E-004	8	...........	-327,67
	94	9	9,97250E-002	4,99519E-005	0,00000E+000	1,00000E-001	3,33200E-004	8	...........	-327,67
	95	9,1	9,97269E-002	4,99548E-005	0,00000E+000	1,00000E-001	2,40000E-004	8	...........	-327,67
	96	9,2	9,97285E-002	4,99517E-005	0,00000E+000	1,00000E-001	3,38400E-004	8	...........	-327,67
	97	9,3	9,97298E-002	4,99524E-005	0,00000E+000	1,00000E-001	2,34400E-004	8	...........	-327,67
	98	9,4	9,97250E-002	4,99556E-005	0,00000E+000	1,00000E-001	3,37800E-004	8	...........	-327,67
	99	9,5	9,97318E-002	4,99603E-005	0,00000E+000	1,00000E-001	2,52800E-004	8	...........	-327,67
	100	9,6	9,97276E-002	4,99595E-005	0,00000E+000	1,00000E-001	3,31000E-004	8	...........	-327,67
	101	9,7	9,97280E-002	4,99552E-005	0,00000E+000	1,00000E-001	2,30200E-004	8	...........	-327,67
	102	9,8	9,97294E-002	4,99613E-005	0,00000E+000	1,00000E-001	3,36400E-004	8	...........	-327,67
	103	9,9	9,97287E-002	4,99602E-005	0,00000E+000	1,00000E-001	2,43800E-004	8	...........	-327,67
	104	10	9,97243E-002	4,99598E-005	0,00000E+000	1,00000E-001	3,28200E-004	8	...........	-327,67
