EXPLAIN
TAG	COLLECTCHRONOA
TITLE	LABEL	3-step CA3 at WE1 and CA at WE2	Test Identifier
DATE	LABEL	16/11/2023	Date
TIME	LABEL	11:01:36	Time
NOTES	NOTES	1	Notes...
	
NOMAD
METHOD	CA3-CA1
SAMPLEID	 LABEL	CE-NOME_Project_test
ENVIRONMENTID	 LABEL	CE-NOME_Project_test
ECSETUPID	 LABEL	CE-NOME_Project_test
AIRTEMPERATURE	 LABEL	25
AIRPRESSURE	 LABEL	1000
AIRHUMIDITY	 LABEL	50

PSTAT GENERATOR	PSTAT	Louie	Potentiostat
PSTATMODEL	IQUANT	64	Pstat Model
PSTATSECTION	LABEL	IFC1010-21185	Pstat Section
PSTATSERIALNO	LABEL	21185	Pstat Serial Number
CTRLMODE	IQUANT	1	Control Mode
ELECTROMETER	IQUANT	0	RE=0 or CS=1
IESTAB	IQUANT	2	I/E Stability
CASPEED	IQUANT	3	Control Amp Speed
CONVENTION	IQUANT	1	Current Convention
ICHRANGE	IQUANT	2	Ich Range
ICHRANGEMODE	TOGGLE	F	Ich Auto Range
ICHOFFSETENABLE	TOGGLE	F	Ich Offset Enable
ICHOFFSET	QUANT	0	Ich Offset (V)
ICHFILTER	IQUANT	3	Ich Filter
VCHRANGE	IQUANT	1	Vch Range
VCHRANGEMODE	TOGGLE	F	Vch Auto Range
VCHOFFSETENABLE	TOGGLE	F	Vch Offset Enable
VCHOFFSET	QUANT	0	Vch Offset (V)
VCHFILTER	IQUANT	3	Vch Filter
IERANGELOWERLIMIT	IQUANT	4	I/E Range Lower Limit
IERANGEMODE	TOGGLE	F	I/E AutoRange
IERANGE	IQUANT	10	I/E Range
ACHSELECT	IQUANT	0	Ach Select
ACHRANGE	IQUANT	2	Ach Range
ACHOFFSETENABLE	TOGGLE	F	Ach Offset Enable
ACHOFFSET	QUANT	0	Ach Offset (V)
ACHFILTER	IQUANT	3	Ach Filter
SENSECABLEID	IQUANT	14	Sense Cable ID
PWRCABLEID	IQUANT	14	Power Cable ID
DCCALDATE	LABEL	11/7/2023	DC Calibration Date
ACCALDATE	LABEL	6/11/2018	AC Calibration Date
FRAMEWORKVERSION	LABEL	7.10.0	Framework Version
INSTRUMENTVERSION	LABEL	4.71	Instrument Version
COMMVERSION	LABEL	3.10	Communications Version
CPUPLDVERSION	LABEL	2.22	CPU PLD Version
CTRLPLDVERSION	LABEL	0.00	CTRL PLD Version
PSTATPLDVERSION	LABEL	0.00	PSTAT PLD Version

PSTAT COLLECTOR	PSTAT	Hare	Potentiostat
PSTATMODEL	IQUANT	48	Pstat Model
PSTATSECTION	LABEL	IFC1000-06095	Pstat Section
PSTATSERIALNO	LABEL	06095	Pstat Serial Number
CTRLMODE	IQUANT	1	Control Mode
ELECTROMETER	IQUANT	0	RE=0 or CS=1
IESTAB	IQUANT	2	I/E Stability
CASPEED	IQUANT	3	Control Amp Speed
CONVENTION	IQUANT	1	Current Convention
ICHRANGE	IQUANT	2	Ich Range
ICHRANGEMODE	TOGGLE	F	Ich Auto Range
ICHOFFSETENABLE	TOGGLE	F	Ich Offset Enable
ICHOFFSET	QUANT	0	Ich Offset (V)
ICHFILTER	IQUANT	3	Ich Filter
VCHRANGE	IQUANT	1	Vch Range
VCHRANGEMODE	TOGGLE	T	Vch Auto Range
VCHOFFSETENABLE	TOGGLE	F	Vch Offset Enable
VCHOFFSET	QUANT	0	Vch Offset (V)
VCHFILTER	IQUANT	3	Vch Filter
IERANGELOWERLIMIT	IQUANT	4	I/E Range Lower Limit
IERANGEMODE	TOGGLE	F	I/E AutoRange
IERANGE	IQUANT	10	I/E Range
ACHSELECT	IQUANT	0	Ach Select
ACHRANGE	IQUANT	2	Ach Range
ACHOFFSETENABLE	TOGGLE	F	Ach Offset Enable
ACHOFFSET	QUANT	0	Ach Offset (V)
ACHFILTER	IQUANT	3	Ach Filter
SENSECABLEID	IQUANT	14	Sense Cable ID
PWRCABLEID	IQUANT	14	Power Cable ID
DCCALDATE	LABEL	1/11/2023	DC Calibration Date
ACCALDATE	LABEL	2/24/2014	AC Calibration Date
FRAMEWORKVERSION	LABEL	7.10.0	Framework Version
INSTRUMENTVERSION	LABEL	4.71	Instrument Version
COMMVERSION	LABEL	3.10	Communications Version
CPUPLDVERSION	LABEL	1.10	CPU PLD Version
CTRLPLDVERSION	LABEL	0.00	CTRL PLD Version
PSTATPLDVERSION	LABEL	0.00	PSTAT PLD Version

VPRESTEP	POTEN	0.00000E+000	F	Pre-step Voltage (V)
TPRESTEP	QUANT	5.00000E-001	Pre-step Delay Time (s)
VSTEP1	POTEN	1.00000E-001	F	Step 1 Voltage (V)
TSTEP1	QUANT	5.00000E+000	Step 1 Time (s)
VSTEP2	POTEN	2.00000E-001	F	Step 2 Voltage (V)
TSTEP2	QUANT	5.00000E+000	Step 2 Time (s)
SAMPLETIME	QUANT	1.00000E-001	Sample Period (s)
IMODE	SELECTOR	1	I/E Range Mode
DISKIRANGE	QUANT	2.00000E+000	Disk Max I (mA)
DISKIRANGE	QUANT	2.00000E+000	Ring Max I (mA)
AREA	QUANT	1.00000E+000	Sample Area (cm^2)
EQDELAY	QUANT	5.00000E+000	Equil. Time (s)
VRING	POTEN	2.00000E-001	F	Ring E (V)
AREA	QUANT	1.00000E+000	Sample Area (cm^2)
EOC	QUANT	0	Open Circuit (V)
SEQUENCER	TOGGLE	TRUE	Run as Sequence
CURVE DETECTOR	TABLE	105
	Pt	T	Vf	Im	Vu	Sig	Ach	IERange	Over	Cycle	Temp
	#	s	V vs. Ref.	A	V	V	V	#	bits	#	deg C
	0	0.1	1.99880E-001	-1.26240E-008	0.00000E+000	2.00003E-001	0.00000E+000	10	...........	0	 0.00
	1	0.2	1.99883E-001	-6.00476E-008	0.00000E+000	2.00003E-001	0.00000E+000	10	...........	0	 0.00
	2	0.3	1.99882E-001	-3.08639E-008	0.00000E+000	2.00003E-001	0.00000E+000	10	...........	0	 0.00
	3	0.4	1.99884E-001	-7.82872E-008	0.00000E+000	2.00003E-001	0.00000E+000	10	...........	0	 0.00
	4	0.5	1.99882E-001	-1.22394E-007	0.00000E+000	2.00003E-001	0.00000E+000	10	...........	0	 0.00
	5	0.6	1.99882E-001	-2.37750E-006	0.00000E+000	2.00003E-001	0.00000E+000	10	...........	0	 0.00
	6	0.7	1.99883E-001	-5.50532E-007	0.00000E+000	2.00003E-001	0.00000E+000	10	...........	0	 0.00
	7	0.8	1.99881E-001	-2.91195E-007	0.00000E+000	2.00003E-001	0.00000E+000	10	...........	0	 0.00
	8	0.9	1.99882E-001	-2.30175E-007	0.00000E+000	2.00003E-001	0.00000E+000	10	...........	0	 0.00
	9	1	1.99883E-001	-1.70150E-007	0.00000E+000	2.00003E-001	0.00000E+000	10	...........	0	 0.00
	10	1.1	1.99883E-001	-1.77114E-007	0.00000E+000	2.00003E-001	0.00000E+000	10	...........	0	 0.00
	11	1.2	1.99882E-001	-1.86731E-007	0.00000E+000	2.00003E-001	0.00000E+000	10	...........	0	 0.00
	12	1.3	1.99882E-001	-9.48689E-008	0.00000E+000	2.00003E-001	0.00000E+000	10	...........	0	 0.00
	13	1.4	1.99883E-001	-6.73434E-008	0.00000E+000	2.00003E-001	0.00000E+000	10	...........	0	 0.00
	14	1.5	1.99881E-001	-9.18842E-008	0.00000E+000	2.00003E-001	0.00000E+000	10	...........	0	 0.00
	15	1.6	1.99881E-001	-8.75730E-008	0.00000E+000	2.00003E-001	0.00000E+000	10	...........	0	 0.00
	16	1.7	1.99883E-001	-1.53900E-007	0.00000E+000	2.00003E-001	0.00000E+000	10	...........	0	 0.00
	17	1.8	1.99883E-001	-1.62522E-007	0.00000E+000	2.00003E-001	0.00000E+000	10	...........	0	 0.00
	18	1.9	1.99882E-001	-1.11119E-007	0.00000E+000	2.00003E-001	0.00000E+000	10	...........	0	 0.00
	19	2	1.99882E-001	-1.92037E-007	0.00000E+000	2.00003E-001	0.00000E+000	10	...........	0	 0.00
	20	2.1	1.99882E-001	-1.37650E-007	0.00000E+000	2.00003E-001	0.00000E+000	10	...........	0	 0.00
	21	2.2	1.99882E-001	-9.58639E-008	0.00000E+000	2.00003E-001	0.00000E+000	10	...........	0	 0.00
	22	2.3	1.99882E-001	-7.26494E-008	0.00000E+000	2.00003E-001	0.00000E+000	10	...........	0	 0.00
	23	2.4	1.99882E-001	-6.50220E-008	0.00000E+000	2.00003E-001	0.00000E+000	10	...........	0	 0.00
	24	2.5	1.99881E-001	-6.80065E-008	0.00000E+000	2.00003E-001	0.00000E+000	10	...........	0	 0.00
	25	2.6	1.99882E-001	-1.23721E-007	0.00000E+000	2.00003E-001	0.00000E+000	10	...........	0	 0.00
	26	2.7	1.99881E-001	-9.18842E-008	0.00000E+000	2.00003E-001	0.00000E+000	10	...........	0	 0.00
	27	2.8	1.99881E-001	-1.07139E-007	0.00000E+000	2.00003E-001	0.00000E+000	10	...........	0	 0.00
	28	2.9	1.99881E-001	-1.34665E-007	0.00000E+000	2.00003E-001	0.00000E+000	10	...........	0	 0.00
	29	3	1.99882E-001	-1.04155E-007	0.00000E+000	2.00003E-001	0.00000E+000	10	...........	0	 0.00
	30	3.1	1.99882E-001	-1.19410E-007	0.00000E+000	2.00003E-001	0.00000E+000	10	...........	0	 0.00
	31	3.2	1.99882E-001	-7.29812E-008	0.00000E+000	2.00003E-001	0.00000E+000	10	...........	0	 0.00
	32	3.3	1.99882E-001	-9.32108E-008	0.00000E+000	2.00003E-001	0.00000E+000	10	...........	0	 0.00
	33	3.4	1.99881E-001	-3.45118E-008	0.00000E+000	2.00003E-001	0.00000E+000	10	...........	0	 0.00
	34	3.5	1.99883E-001	-4.74454E-008	0.00000E+000	2.00003E-001	0.00000E+000	10	...........	0	 0.00
	35	3.6	1.99880E-001	-6.36955E-008	0.00000E+000	2.00003E-001	0.00000E+000	10	...........	0	 0.00
	36	3.7	1.99881E-001	7.60546E-009	0.00000E+000	2.00003E-001	0.00000E+000	10	...........	0	 0.00
	37	3.8	1.99880E-001	-8.06086E-008	0.00000E+000	2.00003E-001	0.00000E+000	10	...........	0	 0.00
	38	3.9	1.99881E-001	-5.44098E-008	0.00000E+000	2.00003E-001	0.00000E+000	10	...........	0	 0.00
	39	4	1.99881E-001	-1.23389E-007	0.00000E+000	2.00003E-001	0.00000E+000	10	...........	0	 0.00
	40	4.1	1.99881E-001	-4.94351E-008	0.00000E+000	2.00003E-001	0.00000E+000	10	...........	0	 0.00
	41	4.2	1.99880E-001	-9.91804E-008	0.00000E+000	2.00003E-001	0.00000E+000	10	...........	0	 0.00
	42	4.3	1.99881E-001	-9.52009E-008	0.00000E+000	2.00003E-001	0.00000E+000	10	...........	0	 0.00
	43	4.4	1.99881E-001	-1.37650E-007	0.00000E+000	2.00003E-001	0.00000E+000	10	...........	0	 0.00
	44	4.5	1.99881E-001	-4.71138E-008	0.00000E+000	2.00003E-001	0.00000E+000	10	...........	0	 0.00
	45	4.6	1.99881E-001	-4.64506E-008	0.00000E+000	2.00003E-001	0.00000E+000	10	...........	0	 0.00
	46	4.7	1.99881E-001	-5.90528E-008	0.00000E+000	2.00003E-001	0.00000E+000	10	...........	0	 0.00
	47	4.8	1.99881E-001	-8.85679E-008	0.00000E+000	2.00003E-001	0.00000E+000	10	...........	0	 0.00
	48	4.9	1.99882E-001	-7.26494E-008	0.00000E+000	2.00003E-001	0.00000E+000	10	...........	0	 0.00
	49	5	1.99882E-001	-3.65017E-008	0.00000E+000	2.00003E-001	0.00000E+000	10	...........	0	 0.00
	50	5.1	1.99881E-001	-9.02261E-008	0.00000E+000	2.00003E-001	0.00000E+000	10	...........	0	 0.00
	51	5.2	1.99881E-001	-6.76750E-008	0.00000E+000	2.00003E-001	0.00000E+000	10	...........	0	 0.00
	52	5.3	1.99881E-001	-3.81599E-008	0.00000E+000	2.00003E-001	0.00000E+000	10	...........	0	 0.00
	53	5.4	1.99881E-001	-9.25476E-008	0.00000E+000	2.00003E-001	0.00000E+000	10	...........	0	 0.00
	54	5.5	1.99880E-001	-1.40303E-007	0.00000E+000	2.00003E-001	0.00000E+000	10	...........	0	 0.00
	55	5.6	1.99882E-001	-2.34334E-006	0.00000E+000	2.00003E-001	0.00000E+000	10	...........	0	 0.00
	56	5.7	1.99882E-001	-6.17190E-007	0.00000E+000	2.00003E-001	0.00000E+000	10	...........	0	 0.00
	57	5.8	1.99882E-001	-3.55200E-007	0.00000E+000	2.00003E-001	0.00000E+000	10	...........	0	 0.00
	58	5.9	1.99881E-001	-2.33823E-007	0.00000E+000	2.00003E-001	0.00000E+000	10	...........	0	 0.00
	59	6	1.99882E-001	-1.58874E-007	0.00000E+000	2.00003E-001	0.00000E+000	10	...........	0	 0.00
	60	6.1	1.99881E-001	-1.37318E-007	0.00000E+000	2.00003E-001	0.00000E+000	10	...........	0	 0.00
	61	6.2	1.99882E-001	-1.16093E-007	0.00000E+000	2.00003E-001	0.00000E+000	10	...........	0	 0.00
	62	6.3	1.99881E-001	-1.43950E-007	0.00000E+000	2.00003E-001	0.00000E+000	10	...........	0	 0.00
	63	6.4	1.99882E-001	-1.22726E-007	0.00000E+000	2.00003E-001	0.00000E+000	10	...........	0	 0.00
	64	6.5	1.99882E-001	-9.88486E-008	0.00000E+000	2.00003E-001	0.00000E+000	10	...........	0	 0.00
	65	6.6	1.99883E-001	-9.98434E-008	0.00000E+000	2.00003E-001	0.00000E+000	10	...........	0	 0.00
	66	6.7	1.99882E-001	-8.16035E-008	0.00000E+000	2.00003E-001	0.00000E+000	10	...........	0	 0.00
	67	6.8	1.99882E-001	-2.98689E-008	0.00000E+000	2.00003E-001	0.00000E+000	10	...........	0	 0.00
	68	6.9	1.99882E-001	-8.16035E-008	0.00000E+000	2.00003E-001	0.00000E+000	10	...........	0	 0.00
	69	7	1.99883E-001	-1.26706E-007	0.00000E+000	2.00003E-001	0.00000E+000	10	...........	0	 0.00
	70	7.1	1.99881E-001	-8.79046E-008	0.00000E+000	2.00003E-001	0.00000E+000	10	...........	0	 0.00
	71	7.2	1.99882E-001	-6.36955E-008	0.00000E+000	2.00003E-001	0.00000E+000	10	...........	0	 0.00
	72	7.3	1.99881E-001	-1.18083E-007	0.00000E+000	2.00003E-001	0.00000E+000	10	...........	0	 0.00
	73	7.4	1.99881E-001	-9.45371E-008	0.00000E+000	2.00003E-001	0.00000E+000	10	...........	0	 0.00
	74	7.5	1.99882E-001	-1.20736E-007	0.00000E+000	2.00003E-001	0.00000E+000	10	...........	0	 0.00
	75	7.6	1.99883E-001	-3.94862E-008	0.00000E+000	2.00003E-001	0.00000E+000	10	...........	0	 0.00
	76	7.7	1.99881E-001	-8.02772E-008	0.00000E+000	2.00003E-001	0.00000E+000	10	...........	0	 0.00
	77	7.8	1.99882E-001	-2.85424E-008	0.00000E+000	2.00003E-001	0.00000E+000	10	...........	0	 0.00
	78	7.9	1.99881E-001	7.27365E-009	0.00000E+000	2.00003E-001	0.00000E+000	10	...........	0	 0.00
	79	8	1.99882E-001	-4.71138E-008	0.00000E+000	2.00003E-001	0.00000E+000	10	...........	0	 0.00
	80	8.1	1.99883E-001	-8.42567E-008	0.00000E+000	2.00003E-001	0.00000E+000	10	...........	0	 0.00
	81	8.2	1.99879E-001	-9.81854E-008	0.00000E+000	2.00003E-001	0.00000E+000	10	...........	0	 0.00
	82	8.3	1.99881E-001	-7.72925E-008	0.00000E+000	2.00003E-001	0.00000E+000	10	...........	0	 0.00
	83	8.4	1.99881E-001	-5.67313E-008	0.00000E+000	2.00003E-001	0.00000E+000	10	...........	0	 0.00
	84	8.5	1.99882E-001	-9.88486E-008	0.00000E+000	2.00003E-001	0.00000E+000	10	...........	0	 0.00
	85	8.6	1.99882E-001	-9.05579E-008	0.00000E+000	2.00003E-001	0.00000E+000	10	...........	0	 0.00
	86	8.7	1.99881E-001	-1.38976E-007	0.00000E+000	2.00003E-001	0.00000E+000	10	...........	0	 0.00
	87	8.8	1.99883E-001	-6.53536E-008	0.00000E+000	2.00003E-001	0.00000E+000	10	...........	0	 0.00
	88	8.9	1.99880E-001	-3.88231E-008	0.00000E+000	2.00003E-001	0.00000E+000	10	...........	0	 0.00
	89	9	1.99883E-001	-3.84913E-008	0.00000E+000	2.00003E-001	0.00000E+000	10	...........	0	 0.00
	90	9.1	1.99882E-001	-1.14435E-007	0.00000E+000	2.00003E-001	0.00000E+000	10	...........	0	 0.00
	91	9.2	1.99881E-001	-1.34001E-007	0.00000E+000	2.00003E-001	0.00000E+000	10	...........	0	 0.00
	92	9.3	1.99883E-001	-1.36655E-007	0.00000E+000	2.00003E-001	0.00000E+000	10	...........	0	 0.00
	93	9.4	1.99881E-001	-3.31854E-008	0.00000E+000	2.00003E-001	0.00000E+000	10	...........	0	 0.00
	94	9.5	1.99882E-001	-1.53568E-007	0.00000E+000	2.00003E-001	0.00000E+000	10	...........	0	 0.00
	95	9.6	1.99882E-001	-1.15098E-007	0.00000E+000	2.00003E-001	0.00000E+000	10	...........	0	 0.00
	96	9.7	1.99882E-001	-7.46394E-008	0.00000E+000	2.00003E-001	0.00000E+000	10	...........	0	 0.00
	97	9.8	1.99882E-001	-1.08134E-007	0.00000E+000	2.00003E-001	0.00000E+000	10	...........	0	 0.00
	98	9.9	1.99882E-001	-1.01833E-007	0.00000E+000	2.00003E-001	0.00000E+000	10	...........	0	 0.00
	99	10	1.99883E-001	-1.02828E-007	0.00000E+000	2.00003E-001	0.00000E+000	10	...........	0	 0.00
	100	10.1	1.99881E-001	-1.13440E-007	0.00000E+000	2.00003E-001	0.00000E+000	10	...........	0	 0.00
	101	10.2	1.99882E-001	-7.76239E-008	0.00000E+000	2.00003E-001	0.00000E+000	10	...........	0	 0.00
	102	10.3	1.99882E-001	-7.09915E-008	0.00000E+000	2.00003E-001	0.00000E+000	10	...........	0	 0.00
	103	10.4	1.99883E-001	-6.66802E-008	0.00000E+000	2.00003E-001	0.00000E+000	10	...........	0	 0.00
	104	10.5	1.99881E-001	-9.58639E-008	0.00000E+000	2.00003E-001	0.00000E+000	10	...........	0	 0.00
CURVE GENERATOR	TABLE	105
	Pt	T	Vf	Im	Vu	Sig	Ach	IERange	Over	Temp
	#	s	V vs. Ref.	A	V	V	V	#	bits	deg C
	0	-0.4	2.92530E-004	-1.62485E-005	0.00000E+000	7.97361E-005	0.00000E+000	10	...........	1488.88
	1	-0.3	2.57235E-004	-1.62119E-005	0.00000E+000	7.97361E-005	0.00000E+000	10	...........	1488.88
	2	-0.2	2.48467E-004	-1.60177E-005	0.00000E+000	7.97361E-005	0.00000E+000	10	...........	1488.88
	3	-0.1	2.48662E-004	-1.59778E-005	0.00000E+000	7.97361E-005	0.00000E+000	10	...........	1488.88
	4	0	2.46936E-004	-1.57653E-005	0.00000E+000	7.97361E-005	0.00000E+000	10	...........	1488.88
	5	0.1	3.29059E-002	1.76299E-004	0.00000E+000	1.00081E-001	0.00000E+000	10	.........v.	1488.88
	6	0.2	1.00257E-001	8.35179E-005	0.00000E+000	1.00081E-001	0.00000E+000	10	...........	1488.88
	7	0.3	1.00260E-001	5.54146E-005	0.00000E+000	1.00081E-001	0.00000E+000	10	...........	1488.88
	8	0.4	1.00260E-001	4.14764E-005	0.00000E+000	1.00081E-001	0.00000E+000	10	...........	1488.88
	9	0.5	1.00260E-001	3.32554E-005	0.00000E+000	1.00081E-001	0.00000E+000	10	...........	1488.88
	10	0.6	1.00257E-001	2.78906E-005	0.00000E+000	1.00081E-001	0.00000E+000	10	...........	1488.88
	11	0.7	1.00259E-001	2.39913E-005	0.00000E+000	1.00081E-001	0.00000E+000	10	...........	1488.88
	12	0.8	1.00258E-001	2.10494E-005	0.00000E+000	1.00081E-001	0.00000E+000	10	...........	1488.88
	13	0.9	1.00259E-001	1.87951E-005	0.00000E+000	1.00081E-001	0.00000E+000	10	...........	1488.88
	14	1	1.00258E-001	1.70533E-005	0.00000E+000	1.00081E-001	0.00000E+000	10	...........	1488.88
	15	1.1	1.00257E-001	1.54036E-005	0.00000E+000	1.00081E-001	0.00000E+000	10	...........	1488.88
	16	1.2	1.00257E-001	1.41586E-005	0.00000E+000	1.00081E-001	0.00000E+000	10	...........	1488.88
	17	1.3	1.00258E-001	1.31483E-005	0.00000E+000	1.00081E-001	0.00000E+000	10	...........	1488.97
	18	1.4	1.00257E-001	1.23572E-005	0.00000E+000	1.00081E-001	0.00000E+000	10	...........	1488.97
	19	1.5	1.00256E-001	1.15997E-005	0.00000E+000	1.00081E-001	0.00000E+000	10	...........	1488.97
	20	1.6	1.00256E-001	1.08638E-005	0.00000E+000	1.00081E-001	0.00000E+000	10	...........	1488.97
	21	1.7	1.00256E-001	1.01588E-005	0.00000E+000	1.00081E-001	0.00000E+000	10	...........	1488.97
	22	1.8	1.00258E-001	9.59884E-006	0.00000E+000	1.00081E-001	0.00000E+000	10	...........	1488.97
	23	1.9	1.00257E-001	9.06546E-006	0.00000E+000	1.00081E-001	0.00000E+000	10	...........	1488.97
	24	2	1.00256E-001	8.57563E-006	0.00000E+000	1.00081E-001	0.00000E+000	10	...........	1488.97
	25	2.1	1.00259E-001	8.15032E-006	0.00000E+000	1.00081E-001	0.00000E+000	10	...........	1488.97
	26	2.2	1.00258E-001	7.92353E-006	0.00000E+000	1.00081E-001	0.00000E+000	10	...........	1488.97
	27	2.3	1.00257E-001	7.66548E-006	0.00000E+000	1.00081E-001	0.00000E+000	10	...........	1488.60
	28	2.4	1.00257E-001	7.35124E-006	0.00000E+000	1.00081E-001	0.00000E+000	10	...........	1488.60
	29	2.5	1.00257E-001	7.15703E-006	0.00000E+000	1.00081E-001	0.00000E+000	10	...........	1488.60
	30	2.6	1.00255E-001	6.68483E-006	0.00000E+000	1.00081E-001	0.00000E+000	10	...........	1488.60
	31	2.7	1.00255E-001	6.62431E-006	0.00000E+000	1.00081E-001	0.00000E+000	10	...........	1488.60
	32	2.8	1.00256E-001	6.35197E-006	0.00000E+000	1.00081E-001	0.00000E+000	10	...........	1488.60
	33	2.9	1.00256E-001	6.14047E-006	0.00000E+000	1.00081E-001	0.00000E+000	10	...........	1488.60
	34	3	1.00257E-001	5.95558E-006	0.00000E+000	1.00081E-001	0.00000E+000	10	...........	1488.60
	35	3.1	1.00254E-001	5.90105E-006	0.00000E+000	1.00081E-001	0.00000E+000	10	...........	1488.60
	36	3.2	1.00256E-001	5.71882E-006	0.00000E+000	1.00081E-001	0.00000E+000	10	...........	1488.60
	37	3.3	1.00256E-001	5.54856E-006	0.00000E+000	1.00081E-001	0.00000E+000	10	...........	1488.60
	38	3.4	1.00255E-001	5.21602E-006	0.00000E+000	1.00081E-001	0.00000E+000	10	...........	1488.60
	39	3.5	1.00257E-001	5.20106E-006	0.00000E+000	1.00081E-001	0.00000E+000	10	...........	1488.60
	40	3.6	1.00256E-001	5.15317E-006	0.00000E+000	1.00081E-001	0.00000E+000	10	...........	1488.60
	41	3.7	1.00255E-001	4.91707E-006	0.00000E+000	1.00081E-001	0.00000E+000	10	...........	1488.60
	42	3.8	1.00257E-001	4.97826E-006	0.00000E+000	1.00081E-001	0.00000E+000	10	...........	1488.60
	43	3.9	1.00257E-001	4.70625E-006	0.00000E+000	1.00081E-001	0.00000E+000	10	...........	1488.60
	44	4	1.00257E-001	4.64805E-006	0.00000E+000	1.00081E-001	0.00000E+000	10	...........	1488.60
	45	4.1	1.00255E-001	4.58121E-006	0.00000E+000	1.00081E-001	0.00000E+000	10	...........	1488.60
	46	4.2	1.00255E-001	4.44554E-006	0.00000E+000	1.00081E-001	0.00000E+000	10	...........	1488.60
	47	4.3	1.00257E-001	4.21210E-006	0.00000E+000	1.00081E-001	0.00000E+000	10	...........	1488.88
	48	4.4	1.00255E-001	4.27894E-006	0.00000E+000	1.00081E-001	0.00000E+000	10	...........	1488.88
	49	4.5	1.00257E-001	4.29989E-006	0.00000E+000	1.00081E-001	0.00000E+000	10	...........	1488.88
	50	4.6	1.00257E-001	4.04649E-006	0.00000E+000	1.00081E-001	0.00000E+000	10	...........	1488.88
	51	4.7	1.00256E-001	4.02388E-006	0.00000E+000	1.00081E-001	0.00000E+000	10	...........	1488.88
	52	4.8	1.00256E-001	4.02056E-006	0.00000E+000	1.00081E-001	0.00000E+000	10	...........	1488.88
	53	4.9	1.00258E-001	3.87225E-006	0.00000E+000	1.00081E-001	0.00000E+000	10	...........	1488.88
	54	5	1.00255E-001	3.80341E-006	0.00000E+000	1.00081E-001	0.00000E+000	10	...........	1488.88
	55	5.1	2.00246E-001	2.09165E-004	0.00000E+000	2.00082E-001	0.00000E+000	10	...........	1488.88
	56	5.2	2.00246E-001	1.09929E-004	0.00000E+000	2.00082E-001	0.00000E+000	10	...........	1488.88
	57	5.3	2.00248E-001	7.76619E-005	0.00000E+000	2.00082E-001	0.00000E+000	10	...........	1488.60
	58	5.4	2.00246E-001	6.13444E-005	0.00000E+000	2.00082E-001	0.00000E+000	10	...........	1488.60
	59	5.5	2.00247E-001	5.09600E-005	0.00000E+000	2.00082E-001	0.00000E+000	10	...........	1488.60
	60	5.6	2.00247E-001	4.40725E-005	0.00000E+000	2.00082E-001	0.00000E+000	10	...........	1488.60
	61	5.7	2.00246E-001	3.87649E-005	0.00000E+000	2.00082E-001	0.00000E+000	10	...........	1488.60
	62	5.8	2.00248E-001	3.46145E-005	0.00000E+000	2.00082E-001	0.00000E+000	10	...........	1488.60
	63	5.9	2.00247E-001	3.16476E-005	0.00000E+000	2.00082E-001	0.00000E+000	10	...........	1488.60
	64	6	2.00245E-001	2.91303E-005	0.00000E+000	2.00082E-001	0.00000E+000	10	...........	1488.60
	65	6.1	2.00246E-001	2.72053E-005	0.00000E+000	2.00082E-001	0.00000E+000	10	...........	1488.60
	66	6.2	2.00247E-001	2.52723E-005	0.00000E+000	2.00082E-001	0.00000E+000	10	...........	1488.60
	67	6.3	2.00245E-001	2.38034E-005	0.00000E+000	2.00082E-001	0.00000E+000	10	...........	1488.60
	68	6.4	2.00245E-001	2.23995E-005	0.00000E+000	2.00082E-001	0.00000E+000	10	...........	1488.60
	69	6.5	2.00246E-001	2.11335E-005	0.00000E+000	2.00082E-001	0.00000E+000	10	...........	1488.60
	70	6.6	2.00245E-001	2.00591E-005	0.00000E+000	2.00082E-001	0.00000E+000	10	...........	1488.60
	71	6.7	2.00245E-001	1.94286E-005	0.00000E+000	2.00082E-001	0.00000E+000	10	...........	1488.60
	72	6.8	2.00247E-001	1.84845E-005	0.00000E+000	2.00082E-001	0.00000E+000	10	...........	1488.60
	73	6.9	2.00247E-001	1.75837E-005	0.00000E+000	2.00082E-001	0.00000E+000	10	...........	1488.60
	74	7	2.00246E-001	1.69196E-005	0.00000E+000	2.00082E-001	0.00000E+000	10	...........	1488.60
	75	7.1	2.00247E-001	1.61741E-005	0.00000E+000	2.00082E-001	0.00000E+000	10	...........	1488.60
	76	7.2	2.00245E-001	1.58402E-005	0.00000E+000	2.00082E-001	0.00000E+000	10	...........	1488.60
	77	7.3	2.00247E-001	1.55123E-005	0.00000E+000	2.00082E-001	0.00000E+000	10	...........	1488.88
	78	7.4	2.00246E-001	1.48060E-005	0.00000E+000	2.00082E-001	0.00000E+000	10	...........	1488.88
	79	7.5	2.00246E-001	1.43022E-005	0.00000E+000	2.00082E-001	0.00000E+000	10	...........	1488.88
	80	7.6	2.00245E-001	1.39873E-005	0.00000E+000	2.00082E-001	0.00000E+000	10	...........	1488.88
	81	7.7	2.00243E-001	1.36638E-005	0.00000E+000	2.00082E-001	0.00000E+000	10	...........	1488.88
	82	7.8	2.00245E-001	1.32182E-005	0.00000E+000	2.00082E-001	0.00000E+000	10	...........	1488.88
	83	7.9	2.00245E-001	1.28377E-005	0.00000E+000	2.00082E-001	0.00000E+000	10	...........	1488.88
	84	8	2.00246E-001	1.25488E-005	0.00000E+000	2.00082E-001	0.00000E+000	10	...........	1488.88
	85	8.1	2.00248E-001	1.22887E-005	0.00000E+000	2.00082E-001	0.00000E+000	10	...........	1488.88
	86	8.2	2.00247E-001	1.19831E-005	0.00000E+000	2.00082E-001	0.00000E+000	10	...........	1488.88
	87	8.3	2.00245E-001	1.18674E-005	0.00000E+000	2.00082E-001	0.00000E+000	10	...........	1488.60
	88	8.4	2.00245E-001	1.13676E-005	0.00000E+000	2.00082E-001	0.00000E+000	10	...........	1488.60
	89	8.5	2.00247E-001	1.13925E-005	0.00000E+000	2.00082E-001	0.00000E+000	10	...........	1488.60
	90	8.6	2.00248E-001	1.09566E-005	0.00000E+000	2.00082E-001	0.00000E+000	10	...........	1488.60
	91	8.7	2.00246E-001	1.08335E-005	0.00000E+000	2.00082E-001	0.00000E+000	10	...........	1488.60
	92	8.8	2.00248E-001	1.04332E-005	0.00000E+000	2.00082E-001	0.00000E+000	10	...........	1488.60
	93	8.9	2.00245E-001	1.05389E-005	0.00000E+000	2.00082E-001	0.00000E+000	10	...........	1488.60
	94	9	2.00245E-001	1.01967E-005	0.00000E+000	2.00082E-001	0.00000E+000	10	...........	1488.60
	95	9.1	2.00246E-001	1.00528E-005	0.00000E+000	2.00082E-001	0.00000E+000	10	...........	1488.60
	96	9.2	2.00246E-001	9.83894E-006	0.00000E+000	2.00082E-001	0.00000E+000	10	...........	1488.60
	97	9.3	2.00245E-001	9.79670E-006	0.00000E+000	2.00082E-001	0.00000E+000	10	...........	1488.60
	98	9.4	2.00247E-001	9.56093E-006	0.00000E+000	2.00082E-001	0.00000E+000	10	...........	1488.60
	99	9.5	2.00246E-001	9.53001E-006	0.00000E+000	2.00082E-001	0.00000E+000	10	...........	1488.60
	100	9.6	2.00246E-001	9.29025E-006	0.00000E+000	2.00082E-001	0.00000E+000	10	...........	1488.60
	101	9.7	2.00249E-001	8.94541E-006	0.00000E+000	2.00082E-001	0.00000E+000	10	...........	1488.60
	102	9.8	2.00247E-001	9.00128E-006	0.00000E+000	2.00082E-001	0.00000E+000	10	...........	1488.60
	103	9.9	2.00247E-001	8.95106E-006	0.00000E+000	2.00082E-001	0.00000E+000	10	...........	1488.60
	104	10	2.00248E-001	8.66542E-006	0.00000E+000	2.00082E-001	0.00000E+000	10	...........	1488.60
