June 13, 2024   13:13:28
Cyclic Voltammetry
File: d:\profile\a4336\desktop\project-1 daad-mos2-ti3c2\sana her\sana(her 0.5 acide ag agcl\12-06-2024\1 t\cv.txt
Data Source:  Experiment
Instrument Model:  CHI760E
Header: 
Note: 

Init E (V) = -0.5
High E (V) = 0.2
Low E (V) = -0.5
Init P/N = P
Scan Rate (V/s) = 0.04
Segment = 6
Sample Interval (V) = 0.001
Quiet Time (sec) = 2
Sensitivity (A/V) = 0.001

Results:

Channel 1:
Segment 5:

Segment 6:

Potential/V, Current/A

-0.500, -4.214e-4
-0.499, -4.046e-4
-0.498, -3.894e-4
-0.497, -3.755e-4
-0.496, -3.624e-4
-0.495, -3.492e-4
-0.494, -3.366e-4
-0.493, -3.243e-4
-0.492, -3.124e-4
-0.491, -3.008e-4
-0.490, -2.896e-4
-0.489, -2.788e-4
-0.488, -2.684e-4
-0.487, -2.581e-4
-0.486, -2.483e-4
-0.485, -2.387e-4
-0.484, -2.293e-4
-0.483, -2.204e-4
-0.482, -2.117e-4
-0.481, -2.033e-4
-0.480, -1.950e-4
-0.479, -1.871e-4
-0.478, -1.795e-4
-0.477, -1.721e-4
-0.476, -1.650e-4
-0.475, -1.581e-4
-0.474, -1.514e-4
-0.473, -1.450e-4
-0.472, -1.388e-4
-0.471, -1.328e-4
-0.470, -1.271e-4
-0.469, -1.216e-4
-0.468, -1.163e-4
-0.467, -1.112e-4
-0.466, -1.062e-4
-0.465, -1.015e-4
-0.464, -9.693e-5
-0.463, -9.245e-5
-0.462, -8.821e-5
-0.461, -8.417e-5
-0.460, -8.010e-5
-0.459, -7.631e-5
-0.458, -7.268e-5
-0.457, -6.921e-5
-0.456, -6.587e-5
-0.455, -6.260e-5
-0.454, -5.956e-5
-0.453, -5.661e-5
-0.452, -5.374e-5
-0.451, -5.101e-5
-0.450, -4.838e-5
-0.449, -4.588e-5
-0.448, -4.354e-5
-0.447, -4.108e-5
-0.446, -3.889e-5
-0.445, -3.681e-5
-0.444, -3.473e-5
-0.443, -3.277e-5
-0.442, -3.089e-5
-0.441, -2.910e-5
-0.440, -2.744e-5
-0.439, -2.571e-5
-0.438, -2.415e-5
-0.437, -2.266e-5
-0.436, -2.121e-5
-0.435, -1.983e-5
-0.434, -1.846e-5
-0.433, -1.718e-5
-0.432, -1.599e-5
-0.431, -1.479e-5
-0.430, -1.363e-5
-0.429, -1.261e-5
-0.428, -1.154e-5
-0.427, -1.049e-5
-0.426, -9.552e-6
-0.425, -8.641e-6
-0.424, -7.791e-6
-0.423, -6.888e-6
-0.422, -6.068e-6
-0.421, -5.325e-6
-0.420, -4.547e-6
-0.419, -3.842e-6
-0.418, -3.113e-6
-0.417, -2.437e-6
-0.416, -1.809e-6
-0.415, -1.081e-6
-0.414, -4.756e-7
-0.413, 2.987e-8
-0.412, 5.974e-7
-0.411, 1.124e-6
-0.410, 1.803e-6
-0.409, 2.331e-6
-0.408, 2.675e-6
-0.407, 3.177e-6
-0.406, 3.594e-6
-0.405, 3.955e-6
-0.404, 4.389e-6
-0.403, 4.785e-6
-0.402, 5.192e-6
-0.401, 5.539e-6
-0.400, 5.856e-6
-0.399, 6.287e-6
-0.398, 6.598e-6
-0.397, 6.861e-6
-0.396, 7.207e-6
-0.395, 7.515e-6
-0.394, 7.813e-6
-0.393, 8.100e-6
-0.392, 8.319e-6
-0.391, 8.635e-6
-0.390, 8.854e-6
-0.389, 9.050e-6
-0.388, 9.306e-6
-0.387, 9.558e-6
-0.386, 9.800e-6
-0.385, 1.000e-5
-0.384, 1.015e-5
-0.383, 1.046e-5
-0.382, 1.064e-5
-0.381, 1.080e-5
-0.380, 1.100e-5
-0.379, 1.119e-5
-0.378, 1.137e-5
-0.377, 1.154e-5
-0.376, 1.165e-5
-0.375, 1.189e-5
-0.374, 1.203e-5
-0.373, 1.215e-5
-0.372, 1.232e-5
-0.371, 1.246e-5
-0.370, 1.263e-5
-0.369, 1.279e-5
-0.368, 1.288e-5
-0.367, 1.307e-5
-0.366, 1.320e-5
-0.365, 1.329e-5
-0.364, 1.342e-5
-0.363, 1.357e-5
-0.362, 1.370e-5
-0.361, 1.380e-5
-0.360, 1.386e-5
-0.359, 1.405e-5
-0.358, 1.415e-5
-0.357, 1.420e-5
-0.356, 1.433e-5
-0.355, 1.443e-5
-0.354, 1.456e-5
-0.353, 1.465e-5
-0.352, 1.467e-5
-0.351, 1.485e-5
-0.350, 1.493e-5
-0.349, 1.500e-5
-0.348, 1.509e-5
-0.347, 1.518e-5
-0.346, 1.529e-5
-0.345, 1.536e-5
-0.344, 1.540e-5
-0.343, 1.555e-5
-0.342, 1.562e-5
-0.341, 1.567e-5
-0.340, 1.576e-5
-0.339, 1.582e-5
-0.338, 1.595e-5
-0.337, 1.601e-5
-0.336, 1.602e-5
-0.335, 1.617e-5
-0.334, 1.624e-5
-0.333, 1.625e-5
-0.332, 1.633e-5
-0.331, 1.643e-5
-0.330, 1.650e-5
-0.329, 1.657e-5
-0.328, 1.660e-5
-0.327, 1.673e-5
-0.326, 1.677e-5
-0.325, 1.682e-5
-0.324, 1.689e-5
-0.323, 1.695e-5
-0.322, 1.704e-5
-0.321, 1.709e-5
-0.320, 1.710e-5
-0.319, 1.722e-5
-0.318, 1.730e-5
-0.317, 1.732e-5
-0.316, 1.739e-5
-0.315, 1.746e-5
-0.314, 1.754e-5
-0.313, 1.762e-5
-0.312, 1.762e-5
-0.311, 1.772e-5
-0.310, 1.779e-5
-0.309, 1.781e-5
-0.308, 1.789e-5
-0.307, 1.794e-5
-0.306, 1.805e-5
-0.305, 1.810e-5
-0.304, 1.808e-5
-0.303, 1.819e-5
-0.302, 1.826e-5
-0.301, 1.829e-5
-0.300, 1.834e-5
-0.299, 1.840e-5
-0.298, 1.847e-5
-0.297, 1.851e-5
-0.296, 1.851e-5
-0.295, 1.860e-5
-0.294, 1.866e-5
-0.293, 1.870e-5
-0.292, 1.875e-5
-0.291, 1.879e-5
-0.290, 1.884e-5
-0.289, 1.891e-5
-0.288, 1.888e-5
-0.287, 1.898e-5
-0.286, 1.906e-5
-0.285, 1.908e-5
-0.284, 1.910e-5
-0.283, 1.915e-5
-0.282, 1.920e-5
-0.281, 1.925e-5
-0.280, 1.927e-5
-0.279, 1.935e-5
-0.278, 1.939e-5
-0.277, 1.939e-5
-0.276, 1.944e-5
-0.275, 1.945e-5
-0.274, 1.951e-5
-0.273, 1.954e-5
-0.272, 1.949e-5
-0.271, 1.957e-5
-0.270, 1.960e-5
-0.269, 1.958e-5
-0.268, 1.960e-5
-0.267, 1.961e-5
-0.266, 1.966e-5
-0.265, 1.967e-5
-0.264, 1.963e-5
-0.263, 1.969e-5
-0.262, 1.970e-5
-0.261, 1.970e-5
-0.260, 1.970e-5
-0.259, 1.972e-5
-0.258, 1.974e-5
-0.257, 1.974e-5
-0.256, 1.969e-5
-0.255, 1.975e-5
-0.254, 1.978e-5
-0.253, 1.976e-5
-0.252, 1.973e-5
-0.251, 1.975e-5
-0.250, 1.976e-5
-0.249, 1.977e-5
-0.248, 1.972e-5
-0.247, 1.974e-5
-0.246, 1.978e-5
-0.245, 1.971e-5
-0.244, 1.971e-5
-0.243, 1.968e-5
-0.242, 1.972e-5
-0.241, 1.970e-5
-0.240, 1.962e-5
-0.239, 1.966e-5
-0.238, 1.966e-5
-0.237, 1.962e-5
-0.236, 1.960e-5
-0.235, 1.959e-5
-0.234, 1.959e-5
-0.233, 1.960e-5
-0.232, 1.954e-5
-0.231, 1.955e-5
-0.230, 1.955e-5
-0.229, 1.955e-5
-0.228, 1.952e-5
-0.227, 1.951e-5
-0.226, 1.956e-5
-0.225, 1.953e-5
-0.224, 1.945e-5
-0.223, 1.948e-5
-0.222, 1.950e-5
-0.221, 1.944e-5
-0.220, 1.944e-5
-0.219, 1.942e-5
-0.218, 1.946e-5
-0.217, 1.943e-5
-0.216, 1.938e-5
-0.215, 1.943e-5
-0.214, 1.941e-5
-0.213, 1.940e-5
-0.212, 1.939e-5
-0.211, 1.936e-5
-0.210, 1.940e-5
-0.209, 1.939e-5
-0.208, 1.933e-5
-0.207, 1.936e-5
-0.206, 1.938e-5
-0.205, 1.938e-5
-0.204, 1.936e-5
-0.203, 1.934e-5
-0.202, 1.933e-5
-0.201, 1.935e-5
-0.200, 1.929e-5
-0.199, 1.933e-5
-0.198, 1.933e-5
-0.197, 1.930e-5
-0.196, 1.931e-5
-0.195, 1.928e-5
-0.194, 1.931e-5
-0.193, 1.931e-5
-0.192, 1.928e-5
-0.191, 1.931e-5
-0.190, 1.932e-5
-0.189, 1.933e-5
-0.188, 1.934e-5
-0.187, 1.934e-5
-0.186, 1.939e-5
-0.185, 1.940e-5
-0.184, 1.937e-5
-0.183, 1.942e-5
-0.182, 1.946e-5
-0.181, 1.947e-5
-0.180, 1.950e-5
-0.179, 1.950e-5
-0.178, 1.961e-5
-0.177, 1.966e-5
-0.176, 1.964e-5
-0.175, 1.974e-5
-0.174, 1.982e-5
-0.173, 1.984e-5
-0.172, 1.990e-5
-0.171, 1.995e-5
-0.170, 2.006e-5
-0.169, 2.013e-5
-0.168, 2.016e-5
-0.167, 2.027e-5
-0.166, 2.037e-5
-0.165, 2.046e-5
-0.164, 2.055e-5
-0.163, 2.061e-5
-0.162, 2.073e-5
-0.161, 2.083e-5
-0.160, 2.085e-5
-0.159, 2.095e-5
-0.158, 2.105e-5
-0.157, 2.109e-5
-0.156, 2.114e-5
-0.155, 2.118e-5
-0.154, 2.124e-5
-0.153, 2.128e-5
-0.152, 2.126e-5
-0.151, 2.127e-5
-0.150, 2.126e-5
-0.149, 2.122e-5
-0.148, 2.116e-5
-0.147, 2.107e-5
-0.146, 2.104e-5
-0.145, 2.097e-5
-0.144, 2.085e-5
-0.143, 2.075e-5
-0.142, 2.066e-5
-0.141, 2.053e-5
-0.140, 2.042e-5
-0.139, 2.032e-5
-0.138, 2.025e-5
-0.137, 2.020e-5
-0.136, 2.006e-5
-0.135, 2.003e-5
-0.134, 1.998e-5
-0.133, 1.995e-5
-0.132, 1.993e-5
-0.131, 1.986e-5
-0.130, 1.989e-5
-0.129, 1.990e-5
-0.128, 1.982e-5
-0.127, 1.985e-5
-0.126, 1.989e-5
-0.125, 1.988e-5
-0.124, 1.990e-5
-0.123, 1.988e-5
-0.122, 1.993e-5
-0.121, 1.993e-5
-0.120, 1.993e-5
-0.119, 1.995e-5
-0.118, 2.000e-5
-0.117, 2.001e-5
-0.116, 2.004e-5
-0.115, 2.001e-5
-0.114, 2.008e-5
-0.113, 2.012e-5
-0.112, 2.011e-5
-0.111, 2.014e-5
-0.110, 2.021e-5
-0.109, 2.021e-5
-0.108, 2.026e-5
-0.107, 2.023e-5
-0.106, 2.030e-5
-0.105, 2.035e-5
-0.104, 2.034e-5
-0.103, 2.036e-5
-0.102, 2.041e-5
-0.101, 2.047e-5
-0.100, 2.049e-5
-0.099, 2.047e-5
-0.098, 2.057e-5
-0.097, 2.061e-5
-0.096, 2.059e-5
-0.095, 2.065e-5
-0.094, 2.072e-5
-0.093, 2.074e-5
-0.092, 2.079e-5
-0.091, 2.081e-5
-0.090, 2.086e-5
-0.089, 2.092e-5
-0.088, 2.095e-5
-0.087, 2.099e-5
-0.086, 2.107e-5
-0.085, 2.110e-5
-0.084, 2.115e-5
-0.083, 2.116e-5
-0.082, 2.126e-5
-0.081, 2.132e-5
-0.080, 2.133e-5
-0.079, 2.139e-5
-0.078, 2.148e-5
-0.077, 2.148e-5
-0.076, 2.156e-5
-0.075, 2.159e-5
-0.074, 2.167e-5
-0.073, 2.174e-5
-0.072, 2.176e-5
-0.071, 2.183e-5
-0.070, 2.190e-5
-0.069, 2.196e-5
-0.068, 2.202e-5
-0.067, 2.202e-5
-0.066, 2.213e-5
-0.065, 2.220e-5
-0.064, 2.218e-5
-0.063, 2.226e-5
-0.062, 2.236e-5
-0.061, 2.239e-5
-0.060, 2.246e-5
-0.059, 2.246e-5
-0.058, 2.255e-5
-0.057, 2.263e-5
-0.056, 2.264e-5
-0.055, 2.270e-5
-0.054, 2.278e-5
-0.053, 2.281e-5
-0.052, 2.289e-5
-0.051, 2.289e-5
-0.050, 2.299e-5
-0.049, 2.308e-5
-0.048, 2.307e-5
-0.047, 2.313e-5
-0.046, 2.319e-5
-0.045, 2.323e-5
-0.044, 2.329e-5
-0.043, 2.329e-5
-0.042, 2.336e-5
-0.041, 2.345e-5
-0.040, 2.346e-5
-0.039, 2.350e-5
-0.038, 2.357e-5
-0.037, 2.361e-5
-0.036, 2.367e-5
-0.035, 2.364e-5
-0.034, 2.374e-5
-0.033, 2.380e-5
-0.032, 2.380e-5
-0.031, 2.385e-5
-0.030, 2.392e-5
-0.029, 2.395e-5
-0.028, 2.400e-5
-0.027, 2.399e-5
-0.026, 2.408e-5
-0.025, 2.414e-5
-0.024, 2.416e-5
-0.023, 2.420e-5
-0.022, 2.426e-5
-0.021, 2.431e-5
-0.020, 2.436e-5
-0.019, 2.434e-5
-0.018, 2.443e-5
-0.017, 2.450e-5
-0.016, 2.451e-5
-0.015, 2.457e-5
-0.014, 2.462e-5
-0.013, 2.467e-5
-0.012, 2.474e-5
-0.011, 2.473e-5
-0.010, 2.480e-5
-0.009, 2.488e-5
-0.008, 2.487e-5
-0.007, 2.491e-5
-0.006, 2.499e-5
-0.005, 2.502e-5
-0.004, 2.509e-5
-0.003, 2.506e-5
-0.002, 2.515e-5
-0.001, 2.522e-5
-0.000, 2.546e-5
0.001, 2.540e-5
0.002, 2.540e-5
0.003, 2.544e-5
0.004, 2.549e-5
0.005, 2.549e-5
0.006, 2.558e-5
0.007, 2.564e-5
0.008, 2.565e-5
0.009, 2.567e-5
0.010, 2.573e-5
0.011, 2.578e-5
0.012, 2.586e-5
0.013, 2.583e-5
0.014, 2.591e-5
0.015, 2.601e-5
0.016, 2.600e-5
0.017, 2.605e-5
0.018, 2.613e-5
0.019, 2.618e-5
0.020, 2.622e-5
0.021, 2.623e-5
0.022, 2.630e-5
0.023, 2.638e-5
0.024, 2.637e-5
0.025, 2.641e-5
0.026, 2.649e-5
0.027, 2.654e-5
0.028, 2.661e-5
0.029, 2.662e-5
0.030, 2.669e-5
0.031, 2.678e-5
0.032, 2.678e-5
0.033, 2.681e-5
0.034, 2.690e-5
0.035, 2.697e-5
0.036, 2.706e-5
0.037, 2.704e-5
0.038, 2.713e-5
0.039, 2.722e-5
0.040, 2.725e-5
0.041, 2.732e-5
0.042, 2.738e-5
0.043, 2.747e-5
0.044, 2.755e-5
0.045, 2.756e-5
0.046, 2.767e-5
0.047, 2.776e-5
0.048, 2.779e-5
0.049, 2.786e-5
0.050, 2.794e-5
0.051, 2.804e-5
0.052, 2.813e-5
0.053, 2.817e-5
0.054, 2.825e-5
0.055, 2.834e-5
0.056, 2.841e-5
0.057, 2.849e-5
0.058, 2.858e-5
0.059, 2.868e-5
0.060, 2.879e-5
0.061, 2.879e-5
0.062, 2.891e-5
0.063, 2.905e-5
0.064, 2.910e-5
0.065, 2.923e-5
0.066, 2.935e-5
0.067, 2.946e-5
0.068, 2.959e-5
0.069, 2.963e-5
0.070, 2.978e-5
0.071, 2.993e-5
0.072, 3.001e-5
0.073, 3.011e-5
0.074, 3.023e-5
0.075, 3.036e-5
0.076, 3.050e-5
0.077, 3.056e-5
0.078, 3.074e-5
0.079, 3.092e-5
0.080, 3.103e-5
0.081, 3.116e-5
0.082, 3.129e-5
0.083, 3.142e-5
0.084, 3.160e-5
0.085, 3.168e-5
0.086, 3.186e-5
0.087, 3.202e-5
0.088, 3.214e-5
0.089, 3.226e-5
0.090, 3.238e-5
0.091, 3.255e-5
0.092, 3.269e-5
0.093, 3.276e-5
0.094, 3.293e-5
0.095, 3.307e-5
0.096, 3.319e-5
0.097, 3.329e-5
0.098, 3.345e-5
0.099, 3.358e-5
0.100, 3.371e-5
0.101, 3.379e-5
0.102, 3.393e-5
0.103, 3.407e-5
0.104, 3.415e-5
0.105, 3.425e-5
0.106, 3.436e-5
0.107, 3.450e-5
0.108, 3.461e-5
0.109, 3.463e-5
0.110, 3.478e-5
0.111, 3.492e-5
0.112, 3.495e-5
0.113, 3.503e-5
0.114, 3.512e-5
0.115, 3.522e-5
0.116, 3.532e-5
0.117, 3.532e-5
0.118, 3.541e-5
0.119, 3.549e-5
0.120, 3.550e-5
0.121, 3.553e-5
0.122, 3.555e-5
0.123, 3.561e-5
0.124, 3.565e-5
0.125, 3.563e-5
0.126, 3.565e-5
0.127, 3.570e-5
0.128, 3.567e-5
0.129, 3.567e-5
0.130, 3.567e-5
0.131, 3.571e-5
0.132, 3.574e-5
0.133, 3.571e-5
0.134, 3.571e-5
0.135, 3.574e-5
0.136, 3.572e-5
0.137, 3.572e-5
0.138, 3.571e-5
0.139, 3.576e-5
0.140, 3.578e-5
0.141, 3.570e-5
0.142, 3.574e-5
0.143, 3.579e-5
0.144, 3.578e-5
0.145, 3.579e-5
0.146, 3.580e-5
0.147, 3.582e-5
0.148, 3.587e-5
0.149, 3.583e-5
0.150, 3.586e-5
0.151, 3.590e-5
0.152, 3.589e-5
0.153, 3.591e-5
0.154, 3.590e-5
0.155, 3.597e-5
0.156, 3.602e-5
0.157, 3.599e-5
0.158, 3.603e-5
0.159, 3.608e-5
0.160, 3.608e-5
0.161, 3.614e-5
0.162, 3.617e-5
0.163, 3.624e-5
0.164, 3.632e-5
0.165, 3.633e-5
0.166, 3.642e-5
0.167, 3.653e-5
0.168, 3.660e-5
0.169, 3.665e-5
0.170, 3.671e-5
0.171, 3.685e-5
0.172, 3.698e-5
0.173, 3.699e-5
0.174, 3.712e-5
0.175, 3.726e-5
0.176, 3.732e-5
0.177, 3.744e-5
0.178, 3.753e-5
0.179, 3.766e-5
0.180, 3.780e-5
0.181, 3.787e-5
0.182, 3.797e-5
0.183, 3.814e-5
0.184, 3.822e-5
0.185, 3.833e-5
0.186, 3.844e-5
0.187, 3.859e-5
0.188, 3.874e-5
0.189, 3.880e-5
0.190, 3.896e-5
0.191, 3.914e-5
0.192, 3.926e-5
0.193, 3.942e-5
0.194, 3.955e-5
0.195, 3.974e-5
0.196, 3.992e-5
0.197, 4.002e-5
0.198, 4.021e-5
0.199, 4.042e-5
0.200, 3.507e-5
0.199, 2.351e-5
0.198, 1.937e-5
0.197, 1.696e-5
0.196, 1.511e-5
0.195, 1.369e-5
0.194, 1.237e-5
0.193, 1.134e-5
0.192, 1.042e-5
0.191, 9.482e-6
0.190, 8.714e-6
0.189, 8.055e-6
0.188, 7.354e-6
0.187, 6.700e-6
0.186, 6.074e-6
0.185, 5.584e-6
0.184, 5.066e-6
0.183, 4.520e-6
0.182, 4.088e-6
0.181, 3.650e-6
0.180, 3.204e-6
0.179, 2.829e-6
0.178, 2.378e-6
0.177, 2.031e-6
0.176, 1.688e-6
0.175, 1.277e-6
0.174, 9.496e-7
0.173, 6.351e-7
0.172, 2.963e-7
0.171, 7.860e-10
0.170, -3.364e-7
0.169, -5.903e-7
0.168, -8.655e-7
0.167, -1.179e-6
0.166, -1.434e-6
0.165, -1.710e-6
0.164, -1.987e-6
0.163, -2.240e-6
0.162, -2.550e-6
0.161, -2.742e-6
0.160, -2.949e-6
0.159, -3.243e-6
0.158, -3.487e-6
0.157, -3.667e-6
0.156, -3.907e-6
0.155, -4.124e-6
0.154, -4.362e-6
0.153, -4.512e-6
0.152, -4.690e-6
0.151, -4.936e-6
0.150, -5.121e-6
0.149, -5.287e-6
0.148, -5.488e-6
0.147, -5.648e-6
0.146, -5.878e-6
0.145, -6.019e-6
0.144, -6.186e-6
0.143, -6.422e-6
0.142, -6.577e-6
0.141, -6.719e-6
0.140, -6.891e-6
0.139, -7.047e-6
0.138, -7.257e-6
0.137, -7.372e-6
0.136, -7.515e-6
0.135, -7.720e-6
0.134, -7.860e-6
0.133, -8.026e-6
0.132, -8.182e-6
0.131, -8.313e-6
0.130, -8.522e-6
0.129, -8.632e-6
0.128, -8.739e-6
0.127, -8.942e-6
0.126, -9.070e-6
0.125, -9.211e-6
0.124, -9.346e-6
0.123, -9.474e-6
0.122, -9.663e-6
0.121, -9.744e-6
0.120, -9.871e-6
0.119, -1.004e-5
0.118, -1.017e-5
0.117, -1.030e-5
0.116, -1.042e-5
0.115, -1.051e-5
0.114, -1.072e-5
0.113, -1.082e-5
0.112, -1.094e-5
0.111, -1.110e-5
0.110, -1.124e-5
0.109, -1.132e-5
0.108, -1.147e-5
0.107, -1.157e-5
0.106, -1.176e-5
0.105, -1.184e-5
0.104, -1.196e-5
0.103, -1.211e-5
0.102, -1.223e-5
0.101, -1.232e-5
0.100, -1.245e-5
0.099, -1.257e-5
0.098, -1.272e-5
0.097, -1.280e-5
0.096, -1.290e-5
0.095, -1.307e-5
0.094, -1.318e-5
0.093, -1.327e-5
0.092, -1.340e-5
0.091, -1.351e-5
0.090, -1.368e-5
0.089, -1.375e-5
0.088, -1.385e-5
0.087, -1.403e-5
0.086, -1.413e-5
0.085, -1.423e-5
0.084, -1.436e-5
0.083, -1.445e-5
0.082, -1.462e-5
0.081, -1.469e-5
0.080, -1.478e-5
0.079, -1.494e-5
0.078, -1.504e-5
0.077, -1.513e-5
0.076, -1.524e-5
0.075, -1.534e-5
0.074, -1.549e-5
0.073, -1.556e-5
0.072, -1.565e-5
0.071, -1.578e-5
0.070, -1.587e-5
0.069, -1.597e-5
0.068, -1.608e-5
0.067, -1.616e-5
0.066, -1.634e-5
0.065, -1.639e-5
0.064, -1.644e-5
0.063, -1.658e-5
0.062, -1.667e-5
0.061, -1.675e-5
0.060, -1.684e-5
0.059, -1.691e-5
0.058, -1.704e-5
0.057, -1.705e-5
0.056, -1.711e-5
0.055, -1.723e-5
0.054, -1.730e-5
0.053, -1.737e-5
0.052, -1.743e-5
0.051, -1.745e-5
0.050, -1.756e-5
0.049, -1.760e-5
0.048, -1.761e-5
0.047, -1.770e-5
0.046, -1.778e-5
0.045, -1.780e-5
0.044, -1.786e-5
0.043, -1.790e-5
0.042, -1.801e-5
0.041, -1.804e-5
0.040, -1.806e-5
0.039, -1.815e-5
0.038, -1.818e-5
0.037, -1.825e-5
0.036, -1.831e-5
0.035, -1.835e-5
0.034, -1.847e-5
0.033, -1.851e-5
0.032, -1.853e-5
0.031, -1.863e-5
0.030, -1.871e-5
0.029, -1.875e-5
0.028, -1.882e-5
0.027, -1.889e-5
0.026, -1.899e-5
0.025, -1.902e-5
0.024, -1.908e-5
0.023, -1.919e-5
0.022, -1.925e-5
0.021, -1.933e-5
0.020, -1.940e-5
0.019, -1.944e-5
0.018, -1.957e-5
0.017, -1.962e-5
0.016, -1.967e-5
0.015, -1.978e-5
0.014, -1.987e-5
0.013, -1.991e-5
0.012, -1.999e-5
0.011, -2.006e-5
0.010, -2.020e-5
0.009, -2.023e-5
0.008, -2.030e-5
0.007, -2.043e-5
0.006, -2.049e-5
0.005, -2.057e-5
0.004, -2.068e-5
0.003, -2.075e-5
0.002, -2.090e-5
0.001, -2.097e-5
0.000, -2.123e-5
-0.001, -2.126e-5
-0.002, -2.132e-5
-0.003, -2.140e-5
-0.004, -2.149e-5
-0.005, -2.158e-5
-0.006, -2.173e-5
-0.007, -2.180e-5
-0.008, -2.187e-5
-0.009, -2.202e-5
-0.010, -2.214e-5
-0.011, -2.227e-5
-0.012, -2.236e-5
-0.013, -2.245e-5
-0.014, -2.260e-5
-0.015, -2.269e-5
-0.016, -2.280e-5
-0.017, -2.296e-5
-0.018, -2.308e-5
-0.019, -2.318e-5
-0.020, -2.330e-5
-0.021, -2.340e-5
-0.022, -2.359e-5
-0.023, -2.367e-5
-0.024, -2.378e-5
-0.025, -2.392e-5
-0.026, -2.403e-5
-0.027, -2.415e-5
-0.028, -2.427e-5
-0.029, -2.437e-5
-0.030, -2.453e-5
-0.031, -2.462e-5
-0.032, -2.469e-5
-0.033, -2.484e-5
-0.034, -2.493e-5
-0.035, -2.502e-5
-0.036, -2.512e-5
-0.037, -2.519e-5
-0.038, -2.533e-5
-0.039, -2.536e-5
-0.040, -2.544e-5
-0.041, -2.554e-5
-0.042, -2.563e-5
-0.043, -2.568e-5
-0.044, -2.577e-5
-0.045, -2.579e-5
-0.046, -2.590e-5
-0.047, -2.592e-5
-0.048, -2.592e-5
-0.049, -2.600e-5
-0.050, -2.603e-5
-0.051, -2.605e-5
-0.052, -2.608e-5
-0.053, -2.607e-5
-0.054, -2.617e-5
-0.055, -2.615e-5
-0.056, -2.612e-5
-0.057, -2.618e-5
-0.058, -2.620e-5
-0.059, -2.621e-5
-0.060, -2.622e-5
-0.061, -2.618e-5
-0.062, -2.626e-5
-0.063, -2.623e-5
-0.064, -2.619e-5
-0.065, -2.623e-5
-0.066, -2.618e-5
-0.067, -2.616e-5
-0.068, -2.612e-5
-0.069, -2.608e-5
-0.070, -2.608e-5
-0.071, -2.599e-5
-0.072, -2.591e-5
-0.073, -2.588e-5
-0.074, -2.586e-5
-0.075, -2.582e-5
-0.076, -2.576e-5
-0.077, -2.568e-5
-0.078, -2.569e-5
-0.079, -2.563e-5
-0.080, -2.557e-5
-0.081, -2.558e-5
-0.082, -2.558e-5
-0.083, -2.555e-5
-0.084, -2.555e-5
-0.085, -2.552e-5
-0.086, -2.556e-5
-0.087, -2.555e-5
-0.088, -2.553e-5
-0.089, -2.560e-5
-0.090, -2.560e-5
-0.091, -2.564e-5
-0.092, -2.568e-5
-0.093, -2.570e-5
-0.094, -2.578e-5
-0.095, -2.580e-5
-0.096, -2.581e-5
-0.097, -2.589e-5
-0.098, -2.595e-5
-0.099, -2.599e-5
-0.100, -2.607e-5
-0.101, -2.611e-5
-0.102, -2.620e-5
-0.103, -2.622e-5
-0.104, -2.625e-5
-0.105, -2.636e-5
-0.106, -2.640e-5
-0.107, -2.647e-5
-0.108, -2.654e-5
-0.109, -2.656e-5
-0.110, -2.669e-5
-0.111, -2.673e-5
-0.112, -2.675e-5
-0.113, -2.684e-5
-0.114, -2.691e-5
-0.115, -2.697e-5
-0.116, -2.702e-5
-0.117, -2.704e-5
-0.118, -2.713e-5
-0.119, -2.719e-5
-0.120, -2.723e-5
-0.121, -2.731e-5
-0.122, -2.735e-5
-0.123, -2.745e-5
-0.124, -2.747e-5
-0.125, -2.749e-5
-0.126, -2.759e-5
-0.127, -2.764e-5
-0.128, -2.762e-5
-0.129, -2.768e-5
-0.130, -2.772e-5
-0.131, -2.776e-5
-0.132, -2.783e-5
-0.133, -2.785e-5
-0.134, -2.792e-5
-0.135, -2.795e-5
-0.136, -2.798e-5
-0.137, -2.803e-5
-0.138, -2.810e-5
-0.139, -2.814e-5
-0.140, -2.818e-5
-0.141, -2.818e-5
-0.142, -2.829e-5
-0.143, -2.832e-5
-0.144, -2.833e-5
-0.145, -2.843e-5
-0.146, -2.850e-5
-0.147, -2.855e-5
-0.148, -2.860e-5
-0.149, -2.863e-5
-0.150, -2.875e-5
-0.151, -2.880e-5
-0.152, -2.884e-5
-0.153, -2.892e-5
-0.154, -2.899e-5
-0.155, -2.907e-5
-0.156, -2.912e-5
-0.157, -2.918e-5
-0.158, -2.927e-5
-0.159, -2.932e-5
-0.160, -2.935e-5
-0.161, -2.942e-5
-0.162, -2.949e-5
-0.163, -2.956e-5
-0.164, -2.960e-5
-0.165, -2.965e-5
-0.166, -2.974e-5
-0.167, -2.980e-5
-0.168, -2.985e-5
-0.169, -2.995e-5
-0.170, -3.002e-5
-0.171, -3.010e-5
-0.172, -3.015e-5
-0.173, -3.021e-5
-0.174, -3.033e-5
-0.175, -3.041e-5
-0.176, -3.043e-5
-0.177, -3.052e-5
-0.178, -3.059e-5
-0.179, -3.068e-5
-0.180, -3.074e-5
-0.181, -3.080e-5
-0.182, -3.094e-5
-0.183, -3.100e-5
-0.184, -3.107e-5
-0.185, -3.116e-5
-0.186, -3.122e-5
-0.187, -3.136e-5
-0.188, -3.144e-5
-0.189, -3.150e-5
-0.190, -3.165e-5
-0.191, -3.172e-5
-0.192, -3.173e-5
-0.193, -3.184e-5
-0.194, -3.195e-5
-0.195, -3.206e-5
-0.196, -3.214e-5
-0.197, -3.219e-5
-0.198, -3.230e-5
-0.199, -3.239e-5
-0.200, -3.243e-5
-0.201, -3.255e-5
-0.202, -3.258e-5
-0.203, -3.265e-5
-0.204, -3.270e-5
-0.205, -3.278e-5
-0.206, -3.278e-5
-0.207, -3.282e-5
-0.208, -3.279e-5
-0.209, -3.285e-5
-0.210, -3.287e-5
-0.211, -3.293e-5
-0.212, -3.293e-5
-0.213, -3.296e-5
-0.214, -3.304e-5
-0.215, -3.311e-5
-0.216, -3.313e-5
-0.217, -3.321e-5
-0.218, -3.320e-5
-0.219, -3.329e-5
-0.220, -3.334e-5
-0.221, -3.336e-5
-0.222, -3.346e-5
-0.223, -3.351e-5
-0.224, -3.349e-5
-0.225, -3.360e-5
-0.226, -3.365e-5
-0.227, -3.369e-5
-0.228, -3.372e-5
-0.229, -3.377e-5
-0.230, -3.381e-5
-0.231, -3.387e-5
-0.232, -3.393e-5
-0.233, -3.399e-5
-0.234, -3.401e-5
-0.235, -3.410e-5
-0.236, -3.413e-5
-0.237, -3.414e-5
-0.238, -3.426e-5
-0.239, -3.435e-5
-0.240, -3.436e-5
-0.241, -3.444e-5
-0.242, -3.452e-5
-0.243, -3.460e-5
-0.244, -3.465e-5
-0.245, -3.470e-5
-0.246, -3.481e-5
-0.247, -3.490e-5
-0.248, -3.494e-5
-0.249, -3.501e-5
-0.250, -3.505e-5
-0.251, -3.517e-5
-0.252, -3.523e-5
-0.253, -3.527e-5
-0.254, -3.539e-5
-0.255, -3.547e-5
-0.256, -3.551e-5
-0.257, -3.562e-5
-0.258, -3.570e-5
-0.259, -3.579e-5
-0.260, -3.587e-5
-0.261, -3.592e-5
-0.262, -3.604e-5
-0.263, -3.612e-5
-0.264, -3.619e-5
-0.265, -3.628e-5
-0.266, -3.636e-5
-0.267, -3.648e-5
-0.268, -3.654e-5
-0.269, -3.659e-5
-0.270, -3.672e-5
-0.271, -3.683e-5
-0.272, -3.685e-5
-0.273, -3.697e-5
-0.274, -3.704e-5
-0.275, -3.715e-5
-0.276, -3.723e-5
-0.277, -3.725e-5
-0.278, -3.739e-5
-0.279, -3.747e-5
-0.280, -3.753e-5
-0.281, -3.764e-5
-0.282, -3.767e-5
-0.283, -3.780e-5
-0.284, -3.786e-5
-0.285, -3.791e-5
-0.286, -3.803e-5
-0.287, -3.814e-5
-0.288, -3.817e-5
-0.289, -3.826e-5
-0.290, -3.835e-5
-0.291, -3.846e-5
-0.292, -3.853e-5
-0.293, -3.857e-5
-0.294, -3.872e-5
-0.295, -3.881e-5
-0.296, -3.885e-5
-0.297, -3.896e-5
-0.298, -3.902e-5
-0.299, -3.913e-5
-0.300, -3.922e-5
-0.301, -3.924e-5
-0.302, -3.938e-5
-0.303, -3.948e-5
-0.304, -3.953e-5
-0.305, -3.962e-5
-0.306, -3.969e-5
-0.307, -3.980e-5
-0.308, -3.986e-5
-0.309, -3.990e-5
-0.310, -4.001e-5
-0.311, -4.011e-5
-0.312, -4.015e-5
-0.313, -4.024e-5
-0.314, -4.028e-5
-0.315, -4.040e-5
-0.316, -4.045e-5
-0.317, -4.048e-5
-0.318, -4.061e-5
-0.319, -4.070e-5
-0.320, -4.072e-5
-0.321, -4.081e-5
-0.322, -4.086e-5
-0.323, -4.098e-5
-0.324, -4.104e-5
-0.325, -4.107e-5
-0.326, -4.116e-5
-0.327, -4.125e-5
-0.328, -4.130e-5
-0.329, -4.139e-5
-0.330, -4.144e-5
-0.331, -4.157e-5
-0.332, -4.161e-5
-0.333, -4.161e-5
-0.334, -4.175e-5
-0.335, -4.185e-5
-0.336, -4.187e-5
-0.337, -4.195e-5
-0.338, -4.203e-5
-0.339, -4.215e-5
-0.340, -4.219e-5
-0.341, -4.223e-5
-0.342, -4.235e-5
-0.343, -4.243e-5
-0.344, -4.247e-5
-0.345, -4.258e-5
-0.346, -4.261e-5
-0.347, -4.274e-5
-0.348, -4.282e-5
-0.349, -4.286e-5
-0.350, -4.297e-5
-0.351, -4.309e-5
-0.352, -4.311e-5
-0.353, -4.321e-5
-0.354, -4.329e-5
-0.355, -4.342e-5
-0.356, -4.349e-5
-0.357, -4.355e-5
-0.358, -4.366e-5
-0.359, -4.376e-5
-0.360, -4.383e-5
-0.361, -4.393e-5
-0.362, -4.399e-5
-0.363, -4.414e-5
-0.364, -4.425e-5
-0.365, -4.426e-5
-0.366, -4.442e-5
-0.367, -4.456e-5
-0.368, -4.461e-5
-0.369, -4.473e-5
-0.370, -4.480e-5
-0.371, -4.494e-5
-0.372, -4.506e-5
-0.373, -4.515e-5
-0.374, -4.528e-5
-0.375, -4.542e-5
-0.376, -4.552e-5
-0.377, -4.566e-5
-0.378, -4.574e-5
-0.379, -4.593e-5
-0.380, -4.606e-5
-0.381, -4.613e-5
-0.382, -4.634e-5
-0.383, -4.646e-5
-0.384, -4.654e-5
-0.385, -4.669e-5
-0.386, -4.685e-5
-0.387, -4.703e-5
-0.388, -4.719e-5
-0.389, -4.728e-5
-0.390, -4.749e-5
-0.391, -4.767e-5
-0.392, -4.783e-5
-0.393, -4.803e-5
-0.394, -4.817e-5
-0.395, -4.842e-5
-0.396, -4.860e-5
-0.397, -4.870e-5
-0.398, -4.897e-5
-0.399, -4.920e-5
-0.400, -4.937e-5
-0.401, -4.958e-5
-0.402, -4.980e-5
-0.403, -5.007e-5
-0.404, -5.030e-5
-0.405, -5.051e-5
-0.406, -5.082e-5
-0.407, -5.112e-5
-0.408, -5.137e-5
-0.409, -5.173e-5
-0.410, -5.217e-5
-0.411, -5.235e-5
-0.412, -5.269e-5
-0.413, -5.295e-5
-0.414, -5.337e-5
-0.415, -5.375e-5
-0.416, -5.408e-5
-0.417, -5.451e-5
-0.418, -5.491e-5
-0.419, -5.535e-5
-0.420, -5.585e-5
-0.421, -5.627e-5
-0.422, -5.679e-5
-0.423, -5.735e-5
-0.424, -5.788e-5
-0.425, -5.849e-5
-0.426, -5.904e-5
-0.427, -5.974e-5
-0.428, -6.042e-5
-0.429, -6.102e-5
-0.430, -6.183e-5
-0.431, -6.266e-5
-0.432, -6.341e-5
-0.433, -6.428e-5
-0.434, -6.518e-5
-0.435, -6.615e-5
-0.436, -6.727e-5
-0.437, -6.829e-5
-0.438, -6.944e-5
-0.439, -7.060e-5
-0.440, -7.181e-5
-0.441, -7.311e-5
-0.442, -7.443e-5
-0.443, -7.589e-5
-0.444, -7.739e-5
-0.445, -7.890e-5
-0.446, -8.067e-5
-0.447, -8.251e-5
-0.448, -8.430e-5
-0.449, -8.622e-5
-0.450, -8.823e-5
-0.451, -9.038e-5
-0.452, -9.263e-5
-0.453, -9.490e-5
-0.454, -9.743e-5
-0.455, -9.999e-5
-0.456, -1.027e-4
-0.457, -1.055e-4
-0.458, -1.084e-4
-0.459, -1.116e-4
-0.460, -1.148e-4
-0.461, -1.181e-4
-0.462, -1.216e-4
-0.463, -1.253e-4
-0.464, -1.292e-4
-0.465, -1.332e-4
-0.466, -1.374e-4
-0.467, -1.418e-4
-0.468, -1.464e-4
-0.469, -1.511e-4
-0.470, -1.561e-4
-0.471, -1.613e-4
-0.472, -1.667e-4
-0.473, -1.723e-4
-0.474, -1.781e-4
-0.475, -1.842e-4
-0.476, -1.904e-4
-0.477, -1.969e-4
-0.478, -2.037e-4
-0.479, -2.108e-4
-0.480, -2.180e-4
-0.481, -2.255e-4
-0.482, -2.333e-4
-0.483, -2.415e-4
-0.484, -2.499e-4
-0.485, -2.585e-4
-0.486, -2.675e-4
-0.487, -2.767e-4
-0.488, -2.862e-4
-0.489, -2.960e-4
-0.490, -3.062e-4
-0.491, -3.168e-4
-0.492, -3.276e-4
-0.493, -3.387e-4
-0.494, -3.502e-4
-0.495, -3.620e-4
-0.496, -3.742e-4
-0.497, -3.866e-4
-0.498, -3.995e-4
-0.499, -4.127e-4
