EXPLAIN
TAG	LSV
TITLE	LABEL	Galvanodynamic Scan	Test Identifier
DATE	LABEL	13.6.2024	Date
TIME	LABEL	16:05:55	Time
NOTES	NOTES	1	Notes...
	
NOMAD
METHOD	LSG
NICK	 LABEL	your own format
SAMPLEID	 LABEL	CE-NOME_AaBa_24xxxx_0000
ENVIRONMENTID	 LABEL	CE-NOME_AaBa_24xxxx_0000
ECSETUPID	 LABEL	CE-NOME_AaBa_24xxxx_0000
AIRTEMPERATURE	 LABEL	25
AIRPRESSURE	 LABEL	1000
AIRHUMIDITY	 LABEL	50
PSTAT	PSTAT	Piggeldy-39112	Potentiostat
IINIT	QUANT	0,00000E+000	Initial i (mA)
IFINAL	QUANT	5,00000E-001	A Real Number
SCANRATE	QUANT	9,99998E-003	Scan Rate (mA/s)
STEPSIZE	QUANT	1,00000E-003	Step Size (mA)
IRANGE	QUANT	3,00000E+000	Max Voltage (V)
LIMITON	TOGGLE	F	Apply limit
AREA	QUANT	1,00000E+000	Sample Area (cm^2)
EQDELAY	QUANT	0,00000E+000	Equil. Time (s)
IRCOMP	SELECTOR	0	IRComp
PFCOR	QUANT	5,00000E+001	PF Corr. (ohm)
SAMPLINGMODE	SELECTOR	1	Sampling Mode
EOC	QUANT	0	Open Circuit (V)
ELECTRODETYPE	SELECTOR	0	Electrode Type
STRIPPING	TOGGLE	F	Used for Stripping
SEQUENCER	TOGGLE	TRUE	Run as Sequence

PSTATMODEL	IQUANT	5	Pstat Model
PSTATSECTION	LABEL	REF3000-39112	Pstat Section
PSTATSERIALNO	LABEL	39112	Pstat Serial Number
CTRLMODE	IQUANT	0	Control Mode
ELECTROMETER	IQUANT	0	RE=0 or CS=1
IESTAB	IQUANT	2	I/E Stability
CASPEED	IQUANT	3	Control Amp Speed
CONVENTION	IQUANT	1	Current Convention
ICHRANGE	IQUANT	2	Ich Range
ICHRANGEMODE	TOGGLE	F	Ich Auto Range
ICHOFFSETENABLE	TOGGLE	F	Ich Offset Enable
ICHOFFSET	QUANT	0	Ich Offset (V)
ICHFILTER	IQUANT	2	Ich Filter
VCHRANGE	IQUANT	2	Vch Range
VCHRANGEMODE	TOGGLE	F	Vch Auto Range
VCHOFFSETENABLE	TOGGLE	F	Vch Offset Enable
VCHOFFSET	QUANT	0	Vch Offset (V)
VCHFILTER	IQUANT	2	Vch Filter
ACHRANGE	IQUANT	2	Ach Range
ACHOFFSETENABLE	TOGGLE	F	Ach Offset Enable
ACHOFFSET	QUANT	0	Ach Offset (V)
ACHFILTER	IQUANT	2	Ach Filter
IERANGELOWERLIMIT	IQUANT	2	I/E Range Lower Limit
IERANGEMODE	TOGGLE	F	I/E AutoRange
IERANGE	IQUANT	12	I/E Range
POSFEEDENABLE	TOGGLE	F	Positive Feedback IR Comp
POSFEEDRESISTANCE	QUANT	0	Positive Feedback Resistance (ohm)
ACHSELECT	IQUANT	0	Ach Select
SENSECABLEID	IQUANT	13	Sense Cable ID
PWRCABLEID	IQUANT	13	Power Cable ID
DCCALDATE	LABEL		DC Calibration Date
ACCALDATE	LABEL		AC Calibration Date
THERMOSELECT	IQUANT	1	Thermo Select
FRAMEWORKVERSION	LABEL	7.10.3	Framework Version
INSTRUMENTVERSION	LABEL	4.91	Instrument Version
COMMVERSION	LABEL	5.10	Communications Version
CPUPLDVERSION	LABEL	6.00	CPU PLD Version
CTRLPLDVERSION	LABEL	3.21	CTRL PLD Version
PSTATPLDVERSION	LABEL	0.00	PSTAT PLD Version
COMPLIANCEVOLTAGE	IQUANT	0	Compliance Voltage
CURVE	TABLE	501
	Pt	T	Vf	Im	Vu	Sig	Ach	IERange	Over	Temp
	#	s	V vs. Ref.	A	V	V	V	#	bits	deg C
	0	0,1	4,09900E-004	-5,67793E-007	0,00000E+000	1,49012E-008	1,16600E-004	9	...........	-327,67
	1	0,2	5,97800E-004	3,95370E-007	0,00000E+000	1,00002E-003	4,00000E-007	9	...........	-327,67
	2	0,3	8,06400E-004	1,37948E-006	0,00000E+000	2,00002E-003	1,26600E-004	9	...........	-327,67
	3	0,4	1,00950E-003	2,57381E-006	0,00000E+000	2,98752E-003	-6,40000E-006	9	...........	-327,67
	4	0,5	1,21580E-003	3,52204E-006	0,00000E+000	3,98751E-003	9,98000E-005	9	...........	-327,67
	5	0,6	1,41200E-003	4,43729E-006	0,00000E+000	4,98751E-003	8,00000E-007	9	...........	-327,67
	6	0,7	1,62550E-003	5,42892E-006	0,00000E+000	5,98751E-003	1,17200E-004	9	...........	-327,67
	7	0,8	1,82280E-003	6,52180E-006	0,00000E+000	6,98751E-003	-1,40000E-006	9	...........	-327,67
	8	0,9	2,01210E-003	7,57067E-006	0,00000E+000	7,97501E-003	1,15600E-004	9	...........	-327,67
	9	1	2,21410E-003	8,42667E-006	0,00000E+000	8,97501E-003	8,40000E-006	9	...........	-327,67
	10	1,1	2,41520E-003	9,36056E-006	0,00000E+000	9,97502E-003	1,11800E-004	9	...........	-327,67
	11	1,2	2,62060E-003	1,05533E-005	0,00000E+000	1,09750E-002	-6,00000E-006	9	...........	-327,67
	12	1,3	2,82640E-003	1,13192E-005	0,00000E+000	1,19750E-002	1,15800E-004	9	...........	-327,67
	13	1,4	3,02170E-003	1,24620E-005	0,00000E+000	1,29625E-002	-4,20000E-006	9	...........	-327,67
	14	1,5	3,21650E-003	1,34881E-005	0,00000E+000	1,39625E-002	1,14400E-004	9	...........	-327,67
	15	1,6	3,42130E-003	1,44320E-005	0,00000E+000	1,49625E-002	6,60000E-006	9	...........	-327,67
	16	1,7	3,62420E-003	1,55393E-005	0,00000E+000	1,59625E-002	1,21600E-004	9	...........	-327,67
	17	1,8	3,81650E-003	1,64944E-005	0,00000E+000	1,69625E-002	4,60000E-006	9	...........	-327,67
	18	1,9	4,02300E-003	1,74910E-005	0,00000E+000	1,79500E-002	1,25600E-004	9	...........	-327,67
	19	2	4,23760E-003	1,85367E-005	0,00000E+000	1,89500E-002	-4,60000E-006	9	...........	-327,67
	20	2,1	4,42390E-003	1,95562E-005	0,00000E+000	1,99500E-002	1,12800E-004	9	...........	-327,67
	21	2,2	4,62470E-003	2,04547E-005	0,00000E+000	2,09500E-002	-5,00000E-006	9	...........	-327,67
	22	2,3	4,83130E-003	2,14911E-005	0,00000E+000	2,19500E-002	1,17600E-004	9	...........	-327,67
	23	2,4	5,02400E-003	2,24876E-005	0,00000E+000	2,29375E-002	1,52000E-005	9	...........	-327,67
	24	2,5	5,23380E-003	2,35486E-005	0,00000E+000	2,39375E-002	1,31600E-004	9	...........	-327,67
	25	2,6	5,43050E-003	2,44516E-005	0,00000E+000	2,49375E-002	8,00000E-007	9	...........	-327,67
	26	2,7	5,62640E-003	2,54315E-005	0,00000E+000	2,59375E-002	1,27600E-004	9	...........	-327,67
	27	2,8	5,82510E-003	2,65379E-005	0,00000E+000	2,69375E-002	1,06000E-005	9	...........	-327,67
	28	2,9	6,02430E-003	2,75548E-005	0,00000E+000	2,79250E-002	1,24200E-004	9	...........	-327,67
	29	3	6,22430E-003	2,84542E-005	0,00000E+000	2,89250E-002	1,08000E-005	9	...........	-327,67
	30	3,1	6,43020E-003	2,94516E-005	0,00000E+000	2,99250E-002	1,34200E-004	9	...........	-327,67
	31	3,2	6,63970E-003	3,05835E-005	0,00000E+000	3,09250E-002	1,38000E-005	9	...........	-327,67
	32	3,3	6,84060E-003	3,15556E-005	0,00000E+000	3,19250E-002	1,28600E-004	9	...........	-327,67
	33	3,4	7,03640E-003	3,24694E-005	0,00000E+000	3,29250E-002	3,00000E-006	9	...........	-327,67
	34	3,5	7,24430E-003	3,34357E-005	0,00000E+000	3,39125E-002	1,30200E-004	9	...........	-327,67
	35	3,6	7,44480E-003	3,46496E-005	0,00000E+000	3,49125E-002	-7,60000E-006	9	...........	-327,67
	36	3,7	7,64230E-003	3,53051E-005	0,00000E+000	3,59125E-002	1,25800E-004	9	...........	-327,67
	37	3,8	7,84110E-003	3,65608E-005	0,00000E+000	3,69125E-002	-6,20000E-006	9	...........	-327,67
	38	3,9	8,04460E-003	3,74409E-005	0,00000E+000	3,79125E-002	1,20400E-004	9	...........	-327,67
	39	4	8,23880E-003	3,83824E-005	0,00000E+000	3,89000E-002	3,80000E-006	9	...........	-327,67
	40	4,1	8,43560E-003	3,95384E-005	0,00000E+000	3,99000E-002	1,28600E-004	9	...........	-327,67
	41	4,2	8,64010E-003	4,05233E-005	0,00000E+000	4,09000E-002	8,20000E-006	9	...........	-327,67
	42	4,3	8,84600E-003	4,15195E-005	0,00000E+000	4,19000E-002	1,10200E-004	9	...........	-327,67
	43	4,4	9,04870E-003	4,25165E-005	0,00000E+000	4,29000E-002	-1,06000E-005	9	...........	-327,67
	44	4,5	9,24360E-003	4,35667E-005	0,00000E+000	4,38875E-002	1,14000E-004	9	...........	-327,67
	45	4,6	9,44230E-003	4,44840E-005	0,00000E+000	4,48875E-002	2,80000E-006	9	...........	-327,67
	46	4,7	9,63470E-003	4,55094E-005	0,00000E+000	4,58875E-002	1,24800E-004	9	...........	-327,67
	47	4,8	9,84230E-003	4,65090E-005	0,00000E+000	4,68875E-002	7,80000E-006	9	...........	-327,67
	48	4,9	1,00508E-002	4,75693E-005	0,00000E+000	4,78875E-002	1,14000E-004	9	...........	-327,67
	49	5	1,02338E-002	4,84800E-005	0,00000E+000	4,88750E-002	-1,80000E-006	9	...........	-327,67
	50	5,1	1,04446E-002	4,94815E-005	0,00000E+000	4,98750E-002	1,18800E-004	9	...........	-327,67
	51	5,2	1,06489E-002	5,06014E-005	0,00000E+000	5,08750E-002	-7,00000E-006	9	...........	-327,67
	52	5,3	1,08432E-002	5,15467E-005	0,00000E+000	5,18750E-002	1,18200E-004	9	...........	-327,67
	53	5,4	1,10362E-002	5,24897E-005	0,00000E+000	5,28750E-002	1,20000E-005	9	...........	-327,67
	54	5,5	1,12374E-002	5,34666E-005	0,00000E+000	5,38625E-002	1,18000E-004	9	...........	-327,67
	55	5,6	1,14361E-002	5,44602E-005	0,00000E+000	5,48625E-002	5,20000E-006	9	...........	-327,67
	56	5,7	1,16422E-002	5,55537E-005	0,00000E+000	5,58625E-002	1,09800E-004	9	...........	-327,67
	57	5,8	1,18516E-002	5,64934E-005	0,00000E+000	5,68625E-002	4,00000E-006	9	...........	-327,67
	58	5,9	1,20531E-002	5,74797E-005	0,00000E+000	5,78625E-002	1,20800E-004	9	...........	-327,67
	59	6	1,22447E-002	5,86054E-005	0,00000E+000	5,88500E-002	-2,60000E-006	9	...........	-327,67
	60	6,1	1,24456E-002	5,95400E-005	0,00000E+000	5,98500E-002	1,12200E-004	9	...........	-327,67
	61	6,2	1,26378E-002	6,05099E-005	0,00000E+000	6,08500E-002	5,60000E-006	9	...........	-327,67
	62	6,3	1,28390E-002	6,15033E-005	0,00000E+000	6,18500E-002	1,22000E-004	9	...........	-327,67
	63	6,4	1,30562E-002	6,24101E-005	0,00000E+000	6,28500E-002	6,20000E-006	9	...........	-327,67
	64	6,5	1,32591E-002	6,35091E-005	0,00000E+000	6,38375E-002	1,28400E-004	9	...........	-327,67
	65	6,6	1,34541E-002	6,45394E-005	0,00000E+000	6,48375E-002	7,60000E-006	9	...........	-327,67
	66	6,7	1,36444E-002	6,55184E-005	0,00000E+000	6,58375E-002	1,19800E-004	9	...........	-327,67
	67	6,8	1,38676E-002	6,65131E-005	0,00000E+000	6,68375E-002	1,06000E-005	9	...........	-327,67
	68	6,9	1,40724E-002	6,75707E-005	0,00000E+000	6,78375E-002	1,21600E-004	9	...........	-327,67
	69	7	1,42625E-002	6,85102E-005	0,00000E+000	6,88250E-002	5,00000E-006	9	...........	-327,67
	70	7,1	1,44580E-002	6,95270E-005	0,00000E+000	6,98250E-002	1,13800E-004	9	...........	-327,67
	71	7,2	1,46650E-002	7,04968E-005	0,00000E+000	7,08250E-002	1,12000E-005	9	...........	-327,67
	72	7,3	1,48685E-002	7,15597E-005	0,00000E+000	7,18250E-002	1,23400E-004	9	...........	-327,67
	73	7,4	1,50620E-002	7,25246E-005	0,00000E+000	7,28250E-002	1,80000E-006	9	...........	-327,67
	74	7,5	1,52631E-002	7,35277E-005	0,00000E+000	7,38125E-002	1,08000E-004	9	...........	-327,67
	75	7,6	1,54901E-002	7,45781E-005	0,00000E+000	7,48125E-002	-3,00000E-006	9	...........	-327,67
	76	7,7	1,56732E-002	7,56069E-005	0,00000E+000	7,58125E-002	1,08400E-004	9	...........	-327,67
	77	7,8	1,58752E-002	7,65258E-005	0,00000E+000	7,68125E-002	-1,72000E-005	9	...........	-327,67
	78	7,9	1,60607E-002	7,75498E-005	0,00000E+000	7,78125E-002	1,13800E-004	9	...........	-327,67
	79	8	1,62833E-002	7,86043E-005	0,00000E+000	7,88000E-002	-1,78000E-005	9	...........	-327,67
	80	8,1	1,64809E-002	7,95472E-005	0,00000E+000	7,98000E-002	1,00000E-004	9	...........	-327,67
	81	8,2	1,66771E-002	8,05111E-005	0,00000E+000	8,08000E-002	-7,80000E-006	9	...........	-327,67
	82	8,3	1,68834E-002	8,15729E-005	0,00000E+000	8,18000E-002	1,06000E-004	9	...........	-327,67
	83	8,4	1,71037E-002	8,26273E-005	0,00000E+000	8,28000E-002	-7,20000E-006	9	...........	-327,67
	84	8,5	1,72814E-002	8,35743E-005	0,00000E+000	8,37875E-002	1,03400E-004	9	...........	-327,67
	85	8,6	1,74801E-002	8,45320E-005	0,00000E+000	8,47875E-002	-5,80000E-006	9	...........	-327,67
	86	8,7	1,76934E-002	8,55494E-005	0,00000E+000	8,57875E-002	1,01800E-004	9	...........	-327,67
	87	8,8	1,78791E-002	8,64675E-005	0,00000E+000	8,67875E-002	-8,00000E-006	9	...........	-327,67
	88	8,9	1,80764E-002	8,75843E-005	0,00000E+000	8,77875E-002	1,09800E-004	9	...........	-327,67
	89	9	1,82743E-002	8,81835E-005	0,00000E+000	8,87875E-002	-1,42000E-005	9	...........	-327,67
	90	9,1	1,84743E-002	8,95467E-005	0,00000E+000	8,97750E-002	1,01400E-004	9	...........	-327,67
	91	9,2	1,86787E-002	9,05158E-005	0,00000E+000	9,07750E-002	-2,40000E-006	9	...........	-327,67
	92	9,3	1,88872E-002	9,15537E-005	0,00000E+000	9,17750E-002	1,09000E-004	9	...........	-327,67
	93	9,4	1,90744E-002	9,25536E-005	0,00000E+000	9,27750E-002	-2,40000E-006	9	...........	-327,67
	94	9,5	1,92816E-002	9,35548E-005	0,00000E+000	9,37750E-002	1,16200E-004	9	...........	-327,67
	95	9,6	1,94738E-002	9,44948E-005	0,00000E+000	9,47625E-002	-6,00000E-006	9	...........	-327,67
	96	9,7	1,96941E-002	9,55492E-005	0,00000E+000	9,57625E-002	1,10000E-004	9	...........	-327,67
	97	9,8	1,98890E-002	9,65506E-005	0,00000E+000	9,67625E-002	-9,40000E-006	9	...........	-327,67
	98	9,9	2,00897E-002	9,75771E-005	0,00000E+000	9,77625E-002	1,17600E-004	9	...........	-327,67
	99	10	2,02840E-002	9,85225E-005	0,00000E+000	9,87625E-002	1,46000E-005	9	...........	-327,67
	100	10,1	2,04741E-002	9,94283E-005	0,00000E+000	9,97500E-002	1,23600E-004	9	...........	-327,67
	101	10,2	2,06798E-002	1,00560E-004	0,00000E+000	1,00750E-001	8,00000E-006	9	...........	-327,67
	102	10,3	2,08894E-002	1,01557E-004	0,00000E+000	1,01750E-001	1,21800E-004	9	...........	-327,67
	103	10,4	2,10831E-002	1,02504E-004	0,00000E+000	1,02750E-001	9,60000E-006	9	...........	-327,67
	104	10,5	2,12815E-002	1,03597E-004	0,00000E+000	1,03750E-001	1,25800E-004	9	...........	-327,67
	105	10,6	2,14728E-002	1,04446E-004	0,00000E+000	1,04738E-001	1,46000E-005	9	...........	-327,67
	106	10,7	2,16834E-002	1,05550E-004	0,00000E+000	1,05738E-001	1,32600E-004	9	...........	-327,67
	107	10,8	2,18853E-002	1,06513E-004	0,00000E+000	1,06738E-001	1,42000E-005	9	...........	-327,67
	108	10,9	2,20937E-002	1,07519E-004	0,00000E+000	1,07738E-001	1,24400E-004	9	...........	-327,67
	109	11	2,22907E-002	1,08561E-004	0,00000E+000	1,08738E-001	1,00000E-005	9	...........	-327,67
	110	11,1	2,24830E-002	1,09563E-004	0,00000E+000	1,09725E-001	1,21600E-004	9	...........	-327,67
	111	11,2	2,26859E-002	1,10506E-004	0,00000E+000	1,10725E-001	8,00000E-006	9	...........	-327,67
	112	11,3	2,28880E-002	1,11551E-004	0,00000E+000	1,11725E-001	1,25800E-004	9	...........	-327,67
	113	11,4	2,30872E-002	1,12187E-004	0,00000E+000	1,12725E-001	6,20000E-006	9	...........	-327,67
	114	11,5	2,32791E-002	1,13566E-004	0,00000E+000	1,13725E-001	1,20600E-004	9	...........	-327,67
	115	11,6	2,34876E-002	1,14511E-004	0,00000E+000	1,14713E-001	6,00000E-007	9	...........	-327,67
	116	11,7	2,36961E-002	1,15441E-004	0,00000E+000	1,15713E-001	1,06600E-004	9	...........	-327,67
	117	11,8	2,38894E-002	1,16589E-004	0,00000E+000	1,16713E-001	-1,60000E-006	9	...........	-327,67
	118	11,9	2,40981E-002	1,17572E-004	0,00000E+000	1,17713E-001	1,14200E-004	9	...........	-327,67
	119	12	2,42881E-002	1,18536E-004	0,00000E+000	1,18713E-001	-3,20000E-006	9	...........	-327,67
	120	12,1	2,44926E-002	1,19578E-004	0,00000E+000	1,19700E-001	1,18400E-004	9	...........	-327,67
	121	12,2	2,46876E-002	1,20549E-004	0,00000E+000	1,20700E-001	9,40000E-006	9	...........	-327,67
	122	12,3	2,48851E-002	1,21563E-004	0,00000E+000	1,21700E-001	1,16000E-004	9	...........	-327,67
	123	12,4	2,50888E-002	1,22545E-004	0,00000E+000	1,22700E-001	2,80000E-006	9	...........	-327,67
	124	12,5	2,52911E-002	1,23537E-004	0,00000E+000	1,23700E-001	1,18600E-004	9	...........	-327,67
	125	12,6	2,54833E-002	1,24562E-004	0,00000E+000	1,24688E-001	-1,04000E-005	9	...........	-327,67
	126	12,7	2,56897E-002	1,25582E-004	0,00000E+000	1,25688E-001	1,13800E-004	9	...........	-327,67
	127	12,8	2,58837E-002	1,26552E-004	0,00000E+000	1,26688E-001	8,60000E-006	9	...........	-327,67
	128	12,9	2,60916E-002	1,27602E-004	0,00000E+000	1,27688E-001	1,19000E-004	9	...........	-327,67
	129	13	2,62803E-002	1,28508E-004	0,00000E+000	1,28688E-001	6,40000E-006	9	...........	-327,67
	130	13,1	2,64875E-002	1,29595E-004	0,00000E+000	1,29675E-001	1,15600E-004	9	...........	-327,67
	131	13,2	2,66907E-002	1,30568E-004	0,00000E+000	1,30675E-001	6,80000E-006	9	...........	-327,67
	132	13,3	2,69019E-002	1,31422E-004	0,00000E+000	1,31675E-001	1,25800E-004	9	...........	-327,67
	133	13,4	2,71061E-002	1,32564E-004	0,00000E+000	1,32675E-001	5,00000E-006	9	...........	-327,67
	134	13,5	2,73122E-002	1,33597E-004	0,00000E+000	1,33675E-001	1,23200E-004	9	...........	-327,67
	135	13,6	2,74927E-002	1,34554E-004	0,00000E+000	1,34663E-001	2,14000E-005	9	...........	-327,67
	136	13,7	2,76949E-002	1,35588E-004	0,00000E+000	1,35663E-001	1,32600E-004	9	...........	-327,67
	137	13,8	2,78882E-002	1,36250E-004	0,00000E+000	1,36663E-001	1,36000E-005	9	...........	-327,67
	138	13,9	2,81040E-002	1,37628E-004	0,00000E+000	1,37663E-001	1,18200E-004	9	...........	-327,67
	139	14	2,83081E-002	1,38578E-004	0,00000E+000	1,38663E-001	7,60000E-006	9	...........	-327,67
	140	14,1	2,85019E-002	1,39379E-004	0,00000E+000	1,39650E-001	1,22800E-004	9	...........	-327,67
	141	14,2	2,87050E-002	1,40565E-004	0,00000E+000	1,40650E-001	1,24000E-005	9	...........	-327,67
	142	14,3	2,89027E-002	1,41602E-004	0,00000E+000	1,41650E-001	1,25000E-004	9	...........	-327,67
	143	14,4	2,90969E-002	1,42579E-004	0,00000E+000	1,42650E-001	1,72000E-005	9	...........	-327,67
	144	14,5	2,93030E-002	1,43613E-004	0,00000E+000	1,43650E-001	1,30600E-004	9	...........	-327,67
	145	14,6	2,94986E-002	1,44569E-004	0,00000E+000	1,44650E-001	8,00000E-006	9	...........	-327,67
	146	14,7	2,97033E-002	1,45598E-004	0,00000E+000	1,45638E-001	1,15000E-004	9	...........	-327,67
	147	14,8	2,99078E-002	1,46596E-004	0,00000E+000	1,46637E-001	6,60000E-006	9	...........	-327,67
	148	14,9	3,01049E-002	1,47494E-004	0,00000E+000	1,47638E-001	1,28400E-004	9	...........	-327,67
	149	15	3,03051E-002	1,48617E-004	0,00000E+000	1,48638E-001	9,80000E-006	9	...........	-327,67
	150	15,1	3,05132E-002	1,49615E-004	0,00000E+000	1,49638E-001	1,20400E-004	9	...........	-327,67
	151	15,2	3,07025E-002	1,50591E-004	0,00000E+000	1,50625E-001	6,20000E-006	9	...........	-327,67
	152	15,3	3,09100E-002	1,51566E-004	0,00000E+000	1,51625E-001	1,21400E-004	9	...........	-327,67
	153	15,4	3,11059E-002	1,52517E-004	0,00000E+000	1,52625E-001	3,40000E-006	9	...........	-327,67
	154	15,5	3,13172E-002	1,53665E-004	0,00000E+000	1,53625E-001	1,15400E-004	9	...........	-327,67
	155	15,6	3,15068E-002	1,54600E-004	0,00000E+000	1,54625E-001	6,00000E-006	9	...........	-327,67
	156	15,7	3,17117E-002	1,55511E-004	0,00000E+000	1,55612E-001	1,20400E-004	9	...........	-327,67
	157	15,8	3,19060E-002	1,56576E-004	0,00000E+000	1,56613E-001	3,00000E-006	9	...........	-327,67
	158	15,9	3,21195E-002	1,57602E-004	0,00000E+000	1,57613E-001	1,19800E-004	9	...........	-327,67
	159	16	3,23153E-002	1,58595E-004	0,00000E+000	1,58613E-001	7,60000E-006	9	...........	-327,67
	160	16,1	3,25267E-002	1,59599E-004	0,00000E+000	1,59613E-001	1,12800E-004	9	...........	-327,67
	161	16,2	3,27164E-002	1,60471E-004	0,00000E+000	1,60600E-001	2,20000E-006	9	...........	-327,67
	162	16,3	3,29220E-002	1,61655E-004	0,00000E+000	1,61600E-001	1,15800E-004	9	...........	-327,67
	163	16,4	3,31220E-002	1,62642E-004	0,00000E+000	1,62600E-001	-1,20000E-006	9	...........	-327,67
	164	16,5	3,33214E-002	1,63402E-004	0,00000E+000	1,63600E-001	1,27200E-004	9	...........	-327,67
	165	16,6	3,35219E-002	1,64552E-004	0,00000E+000	1,64600E-001	1,00000E-005	9	...........	-327,67
	166	16,7	3,37301E-002	1,65334E-004	0,00000E+000	1,65588E-001	1,22600E-004	9	...........	-327,67
	167	16,8	3,39222E-002	1,66619E-004	0,00000E+000	1,66588E-001	9,20000E-006	9	...........	-327,67
	168	16,9	3,41228E-002	1,67643E-004	0,00000E+000	1,67588E-001	1,28400E-004	9	...........	-327,67
	169	17	3,43232E-002	1,68557E-004	0,00000E+000	1,68588E-001	1,40000E-005	9	...........	-327,67
	170	17,1	3,45269E-002	1,69640E-004	0,00000E+000	1,69588E-001	1,16400E-004	9	...........	-327,67
	171	17,2	3,47311E-002	1,70625E-004	0,00000E+000	1,70575E-001	3,60000E-006	9	...........	-327,67
	172	17,3	3,49299E-002	1,71538E-004	0,00000E+000	1,71575E-001	1,32800E-004	9	...........	-327,67
	173	17,4	3,51235E-002	1,72631E-004	0,00000E+000	1,72575E-001	6,60000E-006	9	...........	-327,67
	174	17,5	3,53300E-002	1,73645E-004	0,00000E+000	1,73575E-001	1,22200E-004	9	...........	-327,67
	175	17,6	3,55276E-002	1,74631E-004	0,00000E+000	1,74575E-001	2,20000E-006	9	...........	-327,67
	176	17,7	3,57268E-002	1,75540E-004	0,00000E+000	1,75563E-001	1,36400E-004	9	...........	-327,67
	177	17,8	3,59287E-002	1,76611E-004	0,00000E+000	1,76563E-001	1,40000E-005	9	...........	-327,67
	178	17,9	3,61310E-002	1,77681E-004	0,00000E+000	1,77563E-001	1,18800E-004	9	...........	-327,67
	179	18	3,63295E-002	1,78650E-004	0,00000E+000	1,78563E-001	1,18000E-005	9	...........	-327,67
	180	18,1	3,65323E-002	1,79536E-004	0,00000E+000	1,79563E-001	1,17800E-004	9	...........	-327,67
	181	18,2	3,67258E-002	1,80620E-004	0,00000E+000	1,80550E-001	1,18000E-005	9	...........	-327,67
	182	18,3	3,69352E-002	1,81671E-004	0,00000E+000	1,81550E-001	1,32800E-004	9	...........	-327,67
	183	18,4	3,71283E-002	1,82629E-004	0,00000E+000	1,82550E-001	9,60000E-006	9	...........	-327,67
	184	18,5	3,73352E-002	1,83524E-004	0,00000E+000	1,83550E-001	1,33400E-004	9	...........	-327,67
	185	18,6	3,75321E-002	1,84633E-004	0,00000E+000	1,84550E-001	2,60000E-006	9	...........	-327,67
	186	18,7	3,77371E-002	1,85675E-004	0,00000E+000	1,85538E-001	1,33000E-004	9	...........	-327,67
	187	18,8	3,79352E-002	1,86640E-004	0,00000E+000	1,86538E-001	7,20000E-006	9	...........	-327,67
	188	18,9	3,81231E-002	1,87501E-004	0,00000E+000	1,87538E-001	1,24000E-004	9	...........	-327,67
	189	19	3,83281E-002	1,88620E-004	0,00000E+000	1,88538E-001	1,30000E-005	9	...........	-327,67
	190	19,1	3,85329E-002	1,89649E-004	0,00000E+000	1,89538E-001	1,26400E-004	9	...........	-327,67
	191	19,2	3,87379E-002	1,90669E-004	0,00000E+000	1,90525E-001	1,06000E-005	9	...........	-327,67
	192	19,3	3,89450E-002	1,91432E-004	0,00000E+000	1,91525E-001	1,21200E-004	9	...........	-327,67
	193	19,4	3,91374E-002	1,92614E-004	0,00000E+000	1,92525E-001	7,40000E-006	9	...........	-327,67
	194	19,5	3,93466E-002	1,93673E-004	0,00000E+000	1,93525E-001	1,16800E-004	9	...........	-327,67
	195	19,6	3,95666E-002	1,94667E-004	0,00000E+000	1,94525E-001	3,40000E-006	9	...........	-327,67
	196	19,7	3,97648E-002	1,95615E-004	0,00000E+000	1,95525E-001	1,20600E-004	9	...........	-327,67
	197	19,8	3,99550E-002	1,96655E-004	0,00000E+000	1,96513E-001	4,00000E-007	9	...........	-327,67
	198	19,9	4,01641E-002	1,97692E-004	0,00000E+000	1,97513E-001	1,09800E-004	9	...........	-327,67
	199	20	4,03575E-002	1,98674E-004	0,00000E+000	1,98513E-001	-1,40000E-006	9	...........	-327,67
	200	20,1	4,05536E-002	1,99621E-004	0,00000E+000	1,99513E-001	1,15800E-004	9	...........	-327,67
	201	20,2	4,07554E-002	2,00680E-004	0,00000E+000	2,00512E-001	-4,80000E-006	9	...........	-327,67
	202	20,3	4,09724E-002	2,01685E-004	0,00000E+000	2,01500E-001	1,13000E-004	9	...........	-327,67
	203	20,4	4,11640E-002	2,02673E-004	0,00000E+000	2,02500E-001	-9,20000E-006	9	...........	-327,67
	204	20,5	4,13569E-002	2,03638E-004	0,00000E+000	2,03500E-001	1,16800E-004	9	...........	-327,67
	205	20,6	4,15564E-002	2,04699E-004	0,00000E+000	2,04500E-001	-3,00000E-006	9	...........	-327,67
	206	20,7	4,17557E-002	2,05723E-004	0,00000E+000	2,05500E-001	1,14600E-004	9	...........	-327,67
	207	20,8	4,19522E-002	2,06681E-004	0,00000E+000	2,06488E-001	-5,80000E-006	9	...........	-327,67
	208	20,9	4,21502E-002	2,07603E-004	0,00000E+000	2,07488E-001	1,23200E-004	9	...........	-327,67
	209	21	4,23470E-002	2,08548E-004	0,00000E+000	2,08488E-001	4,00000E-007	9	...........	-327,67
	210	21,1	4,25507E-002	2,09724E-004	0,00000E+000	2,09488E-001	1,05800E-004	9	...........	-327,67
	211	21,2	4,27511E-002	2,10714E-004	0,00000E+000	2,10488E-001	6,00000E-007	9	...........	-327,67
	212	21,3	4,29572E-002	2,11534E-004	0,00000E+000	2,11475E-001	1,25000E-004	9	...........	-327,67
	213	21,4	4,31471E-002	2,12640E-004	0,00000E+000	2,12475E-001	4,60000E-006	9	...........	-327,67
	214	21,5	4,33589E-002	2,13627E-004	0,00000E+000	2,13475E-001	1,22000E-004	9	...........	-327,67
	215	21,6	4,35564E-002	2,14705E-004	0,00000E+000	2,14475E-001	-6,80000E-006	9	...........	-327,67
	216	21,7	4,37583E-002	2,15664E-004	0,00000E+000	2,15475E-001	1,10400E-004	9	...........	-327,67
	217	21,8	4,39483E-002	2,16413E-004	0,00000E+000	2,16463E-001	3,80000E-006	9	...........	-327,67
	218	21,9	4,41593E-002	2,17733E-004	0,00000E+000	2,17463E-001	1,06400E-004	9	...........	-327,67
	219	22	4,43524E-002	2,18697E-004	0,00000E+000	2,18463E-001	1,12000E-005	9	...........	-327,67
	220	22,1	4,45627E-002	2,19637E-004	0,00000E+000	2,19463E-001	1,23600E-004	9	...........	-327,67
	221	22,2	4,47485E-002	2,20690E-004	0,00000E+000	2,20463E-001	-2,40000E-006	9	...........	-327,67
	222	22,3	4,49607E-002	2,21716E-004	0,00000E+000	2,21450E-001	1,27800E-004	9	...........	-327,67
	223	22,4	4,51618E-002	2,22701E-004	0,00000E+000	2,22450E-001	1,16000E-005	9	...........	-327,67
	224	22,5	4,53699E-002	2,23625E-004	0,00000E+000	2,23450E-001	1,25200E-004	9	...........	-327,67
	225	22,6	4,55690E-002	2,24715E-004	0,00000E+000	2,24450E-001	5,80000E-006	9	...........	-327,67
	226	22,7	4,57740E-002	2,25741E-004	0,00000E+000	2,25450E-001	1,29800E-004	9	...........	-327,67
	227	22,8	4,59590E-002	2,26732E-004	0,00000E+000	2,26438E-001	2,60000E-006	9	...........	-327,67
	228	22,9	4,61664E-002	2,27609E-004	0,00000E+000	2,27438E-001	1,30000E-004	9	...........	-327,67
	229	23	4,63657E-002	2,28683E-004	0,00000E+000	2,28438E-001	9,20000E-006	9	...........	-327,67
	230	23,1	4,65678E-002	2,29731E-004	0,00000E+000	2,29438E-001	1,19800E-004	9	...........	-327,67
	231	23,2	4,67690E-002	2,30739E-004	0,00000E+000	2,30438E-001	1,00000E-006	9	...........	-327,67
	232	23,3	4,69521E-002	2,31624E-004	0,00000E+000	2,31425E-001	1,20200E-004	9	...........	-327,67
	233	23,4	4,71481E-002	2,32521E-004	0,00000E+000	2,32425E-001	1,46000E-005	9	...........	-327,67
	234	23,5	4,73688E-002	2,33746E-004	0,00000E+000	2,33425E-001	1,22600E-004	9	...........	-327,67
	235	23,6	4,75670E-002	2,34732E-004	0,00000E+000	2,34425E-001	-5,00000E-006	9	...........	-327,67
	236	23,7	4,77681E-002	2,35600E-004	0,00000E+000	2,35425E-001	1,24000E-004	9	...........	-327,67
	237	23,8	4,79631E-002	2,36662E-004	0,00000E+000	2,36413E-001	4,20000E-006	9	...........	-327,67
	238	23,9	4,81689E-002	2,37748E-004	0,00000E+000	2,37413E-001	1,12800E-004	9	...........	-327,67
	239	24	4,83655E-002	2,38751E-004	0,00000E+000	2,38412E-001	-4,40000E-006	9	...........	-327,67
	240	24,1	4,85676E-002	2,39577E-004	0,00000E+000	2,39413E-001	1,21200E-004	9	...........	-327,67
	241	24,2	4,87591E-002	2,40461E-004	0,00000E+000	2,40413E-001	8,00000E-007	9	...........	-327,67
	242	24,3	4,89716E-002	2,41740E-004	0,00000E+000	2,41400E-001	1,08400E-004	9	...........	-327,67
	243	24,4	4,91814E-002	2,42690E-004	0,00000E+000	2,42400E-001	-4,40000E-006	9	...........	-327,67
	244	24,5	4,93810E-002	2,43511E-004	0,00000E+000	2,43400E-001	1,22000E-004	9	...........	-327,67
	245	24,6	4,95737E-002	2,44706E-004	0,00000E+000	2,44400E-001	2,00000E-006	9	...........	-327,67
	246	24,7	4,97783E-002	2,45741E-004	0,00000E+000	2,45400E-001	1,28400E-004	9	...........	-327,67
	247	24,8	4,99688E-002	2,46726E-004	0,00000E+000	2,46388E-001	1,00000E-005	9	...........	-327,67
	248	24,9	5,01701E-002	2,47699E-004	0,00000E+000	2,47388E-001	1,28600E-004	9	...........	-327,67
	249	25	5,03669E-002	2,48579E-004	0,00000E+000	2,48388E-001	9,40000E-006	9	...........	-327,67
	250	25,1	5,05772E-002	2,49777E-004	0,00000E+000	2,49388E-001	1,12800E-004	9	...........	-327,67
	251	25,2	5,07689E-002	2,50753E-004	0,00000E+000	2,50388E-001	2,40000E-006	9	...........	-327,67
	252	25,3	5,09727E-002	2,51684E-004	0,00000E+000	2,51388E-001	1,22200E-004	9	...........	-327,67
	253	25,4	5,11671E-002	2,52703E-004	0,00000E+000	2,52375E-001	5,00000E-006	9	...........	-327,67
	254	25,5	5,13518E-002	2,53757E-004	0,00000E+000	2,53375E-001	1,24200E-004	9	...........	-327,67
	255	25,6	5,15412E-002	2,54772E-004	0,00000E+000	2,54375E-001	-4,06000E-005	9	...........	-327,67
	256	25,7	5,17417E-002	2,55655E-004	0,00000E+000	2,55375E-001	-1,85000E-004	9	...........	-327,67
	257	25,8	5,19356E-002	2,56594E-004	0,00000E+000	2,56375E-001	-1,80200E-004	9	...........	-327,67
	258	25,9	5,21482E-002	2,57762E-004	0,00000E+000	2,57363E-001	-1,81600E-004	9	...........	-327,67
	259	26	5,23516E-002	2,58749E-004	0,00000E+000	2,58363E-001	-1,73800E-004	9	...........	-327,67
	260	26,1	5,25518E-002	2,59607E-004	0,00000E+000	2,59363E-001	-1,79600E-004	9	...........	-327,67
	261	26,2	5,27547E-002	2,60620E-004	0,00000E+000	2,60363E-001	-1,77200E-004	9	...........	-327,67
	262	26,3	5,29476E-002	2,61719E-004	0,00000E+000	2,61362E-001	-1,85000E-004	9	...........	-327,67
	263	26,4	5,31566E-002	2,62764E-004	0,00000E+000	2,62350E-001	-1,78800E-004	9	...........	-327,67
	264	26,5	5,33541E-002	2,63573E-004	0,00000E+000	2,63350E-001	-1,74600E-004	9	...........	-327,67
	265	26,6	5,35448E-002	2,64513E-004	0,00000E+000	2,64350E-001	-1,79400E-004	9	...........	-327,67
	266	26,7	5,37492E-002	2,65797E-004	0,00000E+000	2,65350E-001	-1,83600E-004	9	...........	-327,67
	267	26,8	5,39620E-002	2,66756E-004	0,00000E+000	2,66350E-001	-1,87200E-004	9	...........	-327,67
	268	26,9	5,41608E-002	2,67579E-004	0,00000E+000	2,67338E-001	-1,85200E-004	9	...........	-327,67
	269	27	5,43605E-002	2,68632E-004	0,00000E+000	2,68338E-001	-1,87400E-004	9	...........	-327,67
	270	27,1	5,45575E-002	2,69752E-004	0,00000E+000	2,69338E-001	-1,93800E-004	9	...........	-327,67
	271	27,2	5,47578E-002	2,70751E-004	0,00000E+000	2,70337E-001	-1,84000E-004	9	...........	-327,67
	272	27,3	5,49616E-002	2,71743E-004	0,00000E+000	2,71338E-001	-1,86000E-004	9	...........	-327,67
	273	27,4	5,51541E-002	2,72584E-004	0,00000E+000	2,72325E-001	-1,79600E-004	9	...........	-327,67
	274	27,5	5,53576E-002	2,73793E-004	0,00000E+000	2,73325E-001	-1,92600E-004	9	...........	-327,67
	275	27,6	5,55658E-002	2,74752E-004	0,00000E+000	2,74325E-001	-1,96400E-004	9	...........	-327,67
	276	27,7	5,57649E-002	2,75683E-004	0,00000E+000	2,75325E-001	-1,91800E-004	9	...........	-327,67
	277	27,8	5,59649E-002	2,76687E-004	0,00000E+000	2,76325E-001	-1,92400E-004	9	...........	-327,67
	278	27,9	5,61675E-002	2,77793E-004	0,00000E+000	2,77313E-001	-1,92600E-004	9	...........	-327,67
	279	28	5,63678E-002	2,78776E-004	0,00000E+000	2,78313E-001	-1,97200E-004	9	...........	-327,67
	280	28,1	5,65672E-002	2,79664E-004	0,00000E+000	2,79312E-001	-1,98200E-004	9	...........	-327,67
	281	28,2	5,67683E-002	2,80663E-004	0,00000E+000	2,80313E-001	-2,01600E-004	9	...........	-327,67
	282	28,3	5,69750E-002	2,81840E-004	0,00000E+000	2,81312E-001	-1,95600E-004	9	...........	-327,67
	283	28,4	5,71708E-002	2,82750E-004	0,00000E+000	2,82300E-001	-1,89200E-004	9	...........	-327,67
	284	28,5	5,73618E-002	2,83651E-004	0,00000E+000	2,83300E-001	-1,80200E-004	9	...........	-327,67
	285	28,6	5,75683E-002	2,84663E-004	0,00000E+000	2,84300E-001	-1,82000E-004	9	...........	-327,67
	286	28,7	5,77715E-002	2,85770E-004	0,00000E+000	2,85300E-001	-1,89400E-004	9	...........	-327,67
	287	28,8	5,79762E-002	2,86791E-004	0,00000E+000	2,86300E-001	-1,82200E-004	9	...........	-327,67
	288	28,9	5,81783E-002	2,87648E-004	0,00000E+000	2,87288E-001	-1,86000E-004	9	...........	-327,67
	289	29	5,83769E-002	2,88716E-004	0,00000E+000	2,88288E-001	-1,93600E-004	9	...........	-327,67
	290	29,1	5,85822E-002	2,89855E-004	0,00000E+000	2,89288E-001	-1,89200E-004	9	...........	-327,67
	291	29,2	5,87795E-002	2,90794E-004	0,00000E+000	2,90287E-001	-1,88400E-004	9	...........	-327,67
	292	29,3	5,89811E-002	2,91594E-004	0,00000E+000	2,91288E-001	-1,87000E-004	9	...........	-327,67
	293	29,4	5,91815E-002	2,92687E-004	0,00000E+000	2,92275E-001	-1,76400E-004	9	...........	-327,67
	294	29,5	5,93815E-002	2,93418E-004	0,00000E+000	2,93275E-001	-1,81400E-004	9	...........	-327,67
	295	29,6	5,95754E-002	2,94841E-004	0,00000E+000	2,94275E-001	-1,85200E-004	9	...........	-327,67
	296	29,7	5,97766E-002	2,95763E-004	0,00000E+000	2,95275E-001	-1,83400E-004	9	...........	-327,67
	297	29,8	5,99752E-002	2,96647E-004	0,00000E+000	2,96275E-001	-1,75800E-004	9	...........	-327,67
	298	29,9	6,01903E-002	2,97811E-004	0,00000E+000	2,97262E-001	-1,96800E-004	9	...........	-327,67
	299	30	6,03845E-002	2,98779E-004	0,00000E+000	2,98263E-001	-1,93200E-004	9	...........	-327,67
	300	30,1	6,05735E-002	2,99716E-004	0,00000E+000	2,99262E-001	-1,79400E-004	9	...........	-327,67
	301	30,2	6,07760E-002	3,00699E-004	0,00000E+000	3,00263E-001	-1,84400E-004	9	...........	-327,67
	302	30,3	6,09862E-002	3,01815E-004	0,00000E+000	3,01262E-001	-1,95000E-004	9	...........	-327,67
	303	30,4	6,11850E-002	3,02799E-004	0,00000E+000	3,02250E-001	-1,86000E-004	9	...........	-327,67
	304	30,5	6,13826E-002	3,03717E-004	0,00000E+000	3,03250E-001	-1,84200E-004	9	...........	-327,67
	305	30,6	6,15877E-002	3,04692E-004	0,00000E+000	3,04250E-001	-1,96800E-004	9	...........	-327,67
	306	30,7	6,17932E-002	3,05850E-004	0,00000E+000	3,05250E-001	-1,92800E-004	9	...........	-327,67
	307	30,8	6,19864E-002	3,06814E-004	0,00000E+000	3,06250E-001	-1,96400E-004	9	...........	-327,67
	308	30,9	6,21922E-002	3,07699E-004	0,00000E+000	3,07250E-001	-1,83600E-004	9	...........	-327,67
	309	31	6,23822E-002	3,08684E-004	0,00000E+000	3,08237E-001	-1,80800E-004	9	...........	-327,67
	310	31,1	6,25898E-002	3,09820E-004	0,00000E+000	3,09238E-001	-1,93800E-004	9	...........	-327,67
	311	31,2	6,27915E-002	3,10799E-004	0,00000E+000	3,10237E-001	-1,86000E-004	9	...........	-327,67
	312	31,3	6,29811E-002	3,11666E-004	0,00000E+000	3,11238E-001	-1,88200E-004	9	...........	-327,67
	313	31,4	6,31894E-002	3,12695E-004	0,00000E+000	3,12238E-001	-1,85800E-004	9	...........	-327,67
	314	31,5	6,33908E-002	3,13847E-004	0,00000E+000	3,13225E-001	-1,91000E-004	9	...........	-327,67
	315	31,6	6,35868E-002	3,14756E-004	0,00000E+000	3,14225E-001	-1,92600E-004	9	...........	-327,67
	316	31,7	6,37870E-002	3,15648E-004	0,00000E+000	3,15225E-001	-1,87600E-004	9	...........	-327,67
	317	31,8	6,39840E-002	3,16677E-004	0,00000E+000	3,16225E-001	-1,87600E-004	9	...........	-327,67
	318	31,9	6,41997E-002	3,17688E-004	0,00000E+000	3,17225E-001	-1,93000E-004	9	...........	-327,67
	319	32	6,43883E-002	3,18861E-004	0,00000E+000	3,18213E-001	-1,88000E-004	9	...........	-327,67
	320	32,1	6,45973E-002	3,19775E-004	0,00000E+000	3,19212E-001	-1,92400E-004	9	...........	-327,67
	321	32,2	6,47956E-002	3,20586E-004	0,00000E+000	3,20213E-001	-1,93600E-004	9	...........	-327,67
	322	32,3	6,50138E-002	3,21820E-004	0,00000E+000	3,21213E-001	-1,91200E-004	9	...........	-327,67
	323	32,4	6,52110E-002	3,22802E-004	0,00000E+000	3,22213E-001	-2,02600E-004	9	...........	-327,67
	324	32,5	6,54059E-002	3,23744E-004	0,00000E+000	3,23200E-001	-1,93000E-004	9	...........	-327,67
	325	32,6	6,56075E-002	3,24726E-004	0,00000E+000	3,24200E-001	-2,01600E-004	9	...........	-327,67
	326	32,7	6,58185E-002	3,25830E-004	0,00000E+000	3,25200E-001	-2,01400E-004	9	...........	-327,67
	327	32,8	6,60264E-002	3,26778E-004	0,00000E+000	3,26200E-001	-1,91200E-004	9	...........	-327,67
	328	32,9	6,62207E-002	3,27740E-004	0,00000E+000	3,27200E-001	-1,95200E-004	9	...........	-327,67
	329	33	6,64285E-002	3,28778E-004	0,00000E+000	3,28187E-001	-1,93400E-004	9	...........	-327,67
	330	33,1	6,66528E-002	3,29804E-004	0,00000E+000	3,29188E-001	-2,12400E-004	9	...........	-327,67
	331	33,2	6,68214E-002	3,30779E-004	0,00000E+000	3,30187E-001	-1,99400E-004	9	...........	-327,67
	332	33,3	6,70212E-002	3,31700E-004	0,00000E+000	3,31187E-001	-1,80200E-004	9	...........	-327,67
	333	33,4	6,72168E-002	3,32769E-004	0,00000E+000	3,32188E-001	-2,02400E-004	9	...........	-327,67
	334	33,5	6,74266E-002	3,33833E-004	0,00000E+000	3,33175E-001	-1,95200E-004	9	...........	-327,67
	335	33,6	6,76188E-002	3,34789E-004	0,00000E+000	3,34175E-001	-1,99400E-004	9	...........	-327,67
	336	33,7	6,78142E-002	3,35685E-004	0,00000E+000	3,35175E-001	-1,91200E-004	9	...........	-327,67
	337	33,8	6,80064E-002	3,36679E-004	0,00000E+000	3,36175E-001	-1,94800E-004	9	...........	-327,67
	338	33,9	6,82213E-002	3,37882E-004	0,00000E+000	3,37175E-001	-1,95800E-004	9	...........	-327,67
	339	34	6,84130E-002	3,38789E-004	0,00000E+000	3,38163E-001	-1,96200E-004	9	...........	-327,67
	340	34,1	6,86161E-002	3,39682E-004	0,00000E+000	3,39162E-001	-2,00400E-004	9	...........	-327,67
	341	34,2	6,88098E-002	3,40688E-004	0,00000E+000	3,40163E-001	-1,95200E-004	9	...........	-327,67
	342	34,3	6,90058E-002	3,41708E-004	0,00000E+000	3,41163E-001	-1,93200E-004	9	...........	-327,67
	343	34,4	6,92109E-002	3,42830E-004	0,00000E+000	3,42162E-001	-1,86400E-004	9	...........	-327,67
	344	34,5	6,94105E-002	3,43648E-004	0,00000E+000	3,43150E-001	-1,88200E-004	9	...........	-327,67
	345	34,6	6,96009E-002	3,44662E-004	0,00000E+000	3,44150E-001	-1,88000E-004	9	...........	-327,67
	346	34,7	6,98066E-002	3,45799E-004	0,00000E+000	3,45150E-001	-1,96400E-004	9	...........	-327,67
	347	34,8	7,00106E-002	3,46817E-004	0,00000E+000	3,46150E-001	-1,85800E-004	9	...........	-327,67
	348	34,9	7,02178E-002	3,47769E-004	0,00000E+000	3,47150E-001	-1,95800E-004	9	...........	-327,67
	349	35	7,04049E-002	3,48739E-004	0,00000E+000	3,48137E-001	-2,01000E-004	9	...........	-327,67
	350	35,1	7,06171E-002	3,49779E-004	0,00000E+000	3,49138E-001	-2,00400E-004	9	...........	-327,67
	351	35,2	7,08248E-002	3,50809E-004	0,00000E+000	3,50138E-001	-1,95400E-004	9	...........	-327,67
	352	35,3	7,10218E-002	3,51777E-004	0,00000E+000	3,51138E-001	-1,93000E-004	9	...........	-327,67
	353	35,4	7,12314E-002	3,52769E-004	0,00000E+000	3,52138E-001	-1,98400E-004	9	...........	-327,67
	354	35,5	7,14164E-002	3,53833E-004	0,00000E+000	3,53125E-001	-1,98600E-004	9	...........	-327,67
	355	35,6	7,16159E-002	3,54829E-004	0,00000E+000	3,54125E-001	-2,04600E-004	9	...........	-327,67
	356	35,7	7,18169E-002	3,55726E-004	0,00000E+000	3,55125E-001	-2,03800E-004	9	...........	-327,67
	357	35,8	7,20244E-002	3,56713E-004	0,00000E+000	3,56125E-001	-1,92400E-004	9	...........	-327,67
	358	35,9	7,22235E-002	3,57803E-004	0,00000E+000	3,57125E-001	-1,86600E-004	9	...........	-327,67
	359	36	7,24222E-002	3,58841E-004	0,00000E+000	3,58113E-001	-1,99200E-004	9	...........	-327,67
	360	36,1	7,26092E-002	3,59684E-004	0,00000E+000	3,59113E-001	-1,94000E-004	9	...........	-327,67
	361	36,2	7,28068E-002	3,60711E-004	0,00000E+000	3,60112E-001	-1,88400E-004	9	...........	-327,67
	362	36,3	7,30184E-002	3,61838E-004	0,00000E+000	3,61113E-001	-1,85000E-004	9	...........	-327,67
	363	36,4	7,32260E-002	3,62809E-004	0,00000E+000	3,62113E-001	-1,94600E-004	9	...........	-327,67
	364	36,5	7,34301E-002	3,63725E-004	0,00000E+000	3,63113E-001	-1,89200E-004	9	...........	-327,67
	365	36,6	7,36247E-002	3,64702E-004	0,00000E+000	3,64100E-001	-1,88200E-004	9	...........	-327,67
	366	36,7	7,38236E-002	3,65849E-004	0,00000E+000	3,65100E-001	-1,83000E-004	9	...........	-327,67
	367	36,8	7,40266E-002	3,66838E-004	0,00000E+000	3,66100E-001	-1,78600E-004	9	...........	-327,67
	368	36,9	7,42220E-002	3,67735E-004	0,00000E+000	3,67100E-001	-1,86000E-004	9	...........	-327,67
	369	37	7,44320E-002	3,68670E-004	0,00000E+000	3,68100E-001	-1,88000E-004	9	...........	-327,67
	370	37,1	7,46370E-002	3,69853E-004	0,00000E+000	3,69088E-001	-1,83600E-004	9	...........	-327,67
	371	37,2	7,48354E-002	3,70575E-004	0,00000E+000	3,70088E-001	-1,86400E-004	9	...........	-327,67
	372	37,3	7,50414E-002	3,71742E-004	0,00000E+000	3,71087E-001	-1,80600E-004	9	...........	-327,67
	373	37,4	7,52289E-002	3,72792E-004	0,00000E+000	3,72088E-001	-1,81200E-004	9	...........	-327,67
	374	37,5	7,54304E-002	3,73729E-004	0,00000E+000	3,73087E-001	-1,82600E-004	9	...........	-327,67
	375	37,6	7,56301E-002	3,74830E-004	0,00000E+000	3,74075E-001	-1,82200E-004	9	...........	-327,67
	376	37,7	7,58264E-002	3,75777E-004	0,00000E+000	3,75075E-001	-1,83400E-004	9	...........	-327,67
	377	37,8	7,60244E-002	3,76769E-004	0,00000E+000	3,76075E-001	-1,74600E-004	9	...........	-327,67
	378	37,9	7,62391E-002	3,77812E-004	0,00000E+000	3,77075E-001	-1,85800E-004	9	...........	-327,67
	379	38	7,64293E-002	3,78830E-004	0,00000E+000	3,78075E-001	-1,90000E-004	9	...........	-327,67
	380	38,1	7,66278E-002	3,79761E-004	0,00000E+000	3,79063E-001	-1,92200E-004	9	...........	-327,67
	381	38,2	7,68232E-002	3,80767E-004	0,00000E+000	3,80063E-001	-1,80000E-004	9	...........	-327,67
	382	38,3	7,70251E-002	3,81834E-004	0,00000E+000	3,81063E-001	-1,91000E-004	9	...........	-327,67
	383	38,4	7,72368E-002	3,82823E-004	0,00000E+000	3,82062E-001	-1,85600E-004	9	...........	-327,67
	384	38,5	7,74274E-002	3,83751E-004	0,00000E+000	3,83062E-001	-1,81600E-004	9	...........	-327,67
	385	38,6	7,76160E-002	3,84737E-004	0,00000E+000	3,84050E-001	-1,95400E-004	9	...........	-327,67
	386	38,7	7,78361E-002	3,85856E-004	0,00000E+000	3,85050E-001	-1,86000E-004	9	...........	-327,67
	387	38,8	7,80308E-002	3,86832E-004	0,00000E+000	3,86050E-001	-1,77600E-004	9	...........	-327,67
	388	38,9	7,82334E-002	3,87760E-004	0,00000E+000	3,87050E-001	-1,85400E-004	9	...........	-327,67
	389	39	7,84471E-002	3,88749E-004	0,00000E+000	3,88050E-001	-1,80400E-004	9	...........	-327,67
	390	39,1	7,86315E-002	3,89820E-004	0,00000E+000	3,89037E-001	-1,79000E-004	9	...........	-327,67
	391	39,2	7,88396E-002	3,90794E-004	0,00000E+000	3,90038E-001	-1,87000E-004	9	...........	-327,67
	392	39,3	7,90317E-002	3,91747E-004	0,00000E+000	3,91038E-001	-1,97600E-004	9	...........	-327,67
	393	39,4	7,92346E-002	3,92714E-004	0,00000E+000	3,92038E-001	-1,82200E-004	9	...........	-327,67
	394	39,5	7,94446E-002	3,93836E-004	0,00000E+000	3,93037E-001	-1,88200E-004	9	...........	-327,67
	395	39,6	7,96445E-002	3,94764E-004	0,00000E+000	3,94025E-001	-1,85200E-004	9	...........	-327,67
	396	39,7	7,98398E-002	3,95765E-004	0,00000E+000	3,95025E-001	-1,89400E-004	9	...........	-327,67
	397	39,8	8,00374E-002	3,96726E-004	0,00000E+000	3,96025E-001	-1,91600E-004	9	...........	-327,67
	398	39,9	8,02437E-002	3,97681E-004	0,00000E+000	3,97025E-001	-1,87400E-004	9	...........	-327,67
	399	40	8,04479E-002	3,98844E-004	0,00000E+000	3,98025E-001	-1,77000E-004	9	...........	-327,67
	400	40,1	8,06368E-002	3,99823E-004	0,00000E+000	3,99013E-001	-1,86600E-004	9	...........	-327,67
	401	40,2	8,08417E-002	4,00797E-004	0,00000E+000	4,00012E-001	-1,93400E-004	9	...........	-327,67
	402	40,3	8,10505E-002	4,01809E-004	0,00000E+000	4,01012E-001	-1,95000E-004	9	...........	-327,67
	403	40,4	8,12425E-002	4,02864E-004	0,00000E+000	4,02012E-001	-1,94400E-004	9	...........	-327,67
	404	40,5	8,14489E-002	4,03803E-004	0,00000E+000	4,03013E-001	-1,81800E-004	9	...........	-327,67
	405	40,6	8,16438E-002	4,04785E-004	0,00000E+000	4,04000E-001	-1,89000E-004	9	...........	-327,67
	406	40,7	8,18381E-002	4,05719E-004	0,00000E+000	4,05000E-001	-1,70000E-004	9	...........	-327,67
	407	40,8	8,20537E-002	4,06852E-004	0,00000E+000	4,06000E-001	-1,93800E-004	9	...........	-327,67
	408	40,9	8,22512E-002	4,07783E-004	0,00000E+000	4,07000E-001	-1,81400E-004	9	...........	-327,67
	409	41	8,24443E-002	4,08807E-004	0,00000E+000	4,08000E-001	-1,76400E-004	9	...........	-327,67
	410	41,1	8,26503E-002	4,09835E-004	0,00000E+000	4,08988E-001	-1,77200E-004	9	...........	-327,67
	411	41,2	8,28437E-002	4,10815E-004	0,00000E+000	4,09988E-001	-1,86400E-004	9	...........	-327,67
	412	41,3	8,30445E-002	4,11763E-004	0,00000E+000	4,10987E-001	-1,84600E-004	9	...........	-327,67
	413	41,4	8,32517E-002	4,12762E-004	0,00000E+000	4,11987E-001	-1,87800E-004	9	...........	-327,67
	414	41,5	8,34521E-002	4,13705E-004	0,00000E+000	4,12988E-001	-1,78800E-004	9	...........	-327,67
	415	41,6	8,36539E-002	4,14769E-004	0,00000E+000	4,13975E-001	-1,87200E-004	9	...........	-327,67
	416	41,7	8,38582E-002	4,15771E-004	0,00000E+000	4,14975E-001	-1,81600E-004	9	...........	-327,67
	417	41,8	8,40612E-002	4,16772E-004	0,00000E+000	4,15975E-001	-1,85800E-004	9	...........	-327,67
	418	41,9	8,42623E-002	4,17848E-004	0,00000E+000	4,16975E-001	-1,82800E-004	9	...........	-327,67
	419	42	8,44586E-002	4,18609E-004	0,00000E+000	4,17975E-001	-1,83000E-004	9	...........	-327,67
	420	42,1	8,46622E-002	4,19795E-004	0,00000E+000	4,18975E-001	-1,88600E-004	9	...........	-327,67
	421	42,2	8,48585E-002	4,20761E-004	0,00000E+000	4,19962E-001	-1,88600E-004	9	...........	-327,67
	422	42,3	8,50564E-002	4,21672E-004	0,00000E+000	4,20963E-001	-1,75000E-004	9	...........	-327,67
	423	42,4	8,52664E-002	4,22784E-004	0,00000E+000	4,21962E-001	-1,83400E-004	9	...........	-327,67
	424	42,5	8,54566E-002	4,23840E-004	0,00000E+000	4,22962E-001	-1,87800E-004	9	...........	-327,67
	425	42,6	8,56597E-002	4,24809E-004	0,00000E+000	4,23963E-001	-1,82200E-004	9	...........	-327,67
	426	42,7	8,58663E-002	4,25799E-004	0,00000E+000	4,24950E-001	-1,82600E-004	9	...........	-327,67
	427	42,8	8,60565E-002	4,26833E-004	0,00000E+000	4,25950E-001	-1,87400E-004	9	...........	-327,67
	428	42,9	8,62670E-002	4,27804E-004	0,00000E+000	4,26950E-001	-1,85400E-004	9	...........	-327,67
	429	43	8,64699E-002	4,28817E-004	0,00000E+000	4,27950E-001	-1,87800E-004	9	...........	-327,67
	430	43,1	8,66689E-002	4,29766E-004	0,00000E+000	4,28950E-001	-1,72600E-004	9	...........	-327,67
	431	43,2	8,68654E-002	4,30836E-004	0,00000E+000	4,29937E-001	-1,90600E-004	9	...........	-327,67
	432	43,3	8,70620E-002	4,31810E-004	0,00000E+000	4,30937E-001	-1,95200E-004	9	...........	-327,67
	433	43,4	8,72721E-002	4,32832E-004	0,00000E+000	4,31938E-001	-1,90400E-004	9	...........	-327,67
	434	43,5	8,74751E-002	4,33844E-004	0,00000E+000	4,32938E-001	-1,91400E-004	9	...........	-327,67
	435	43,6	8,76728E-002	4,34837E-004	0,00000E+000	4,33937E-001	-1,85600E-004	9	...........	-327,67
	436	43,7	8,78703E-002	4,35809E-004	0,00000E+000	4,34925E-001	-1,86200E-004	9	...........	-327,67
	437	43,8	8,80615E-002	4,36791E-004	0,00000E+000	4,35925E-001	-1,80600E-004	9	...........	-327,67
	438	43,9	8,82693E-002	4,37762E-004	0,00000E+000	4,36925E-001	-1,86400E-004	9	...........	-327,67
	439	44	8,84734E-002	4,38821E-004	0,00000E+000	4,37925E-001	-1,95800E-004	9	...........	-327,67
	440	44,1	8,86688E-002	4,39799E-004	0,00000E+000	4,38925E-001	-1,82400E-004	9	...........	-327,67
	441	44,2	8,88730E-002	4,40809E-004	0,00000E+000	4,39912E-001	-1,82200E-004	9	...........	-327,67
	442	44,3	8,90773E-002	4,41861E-004	0,00000E+000	4,40912E-001	-1,82200E-004	9	...........	-327,67
	443	44,4	8,92696E-002	4,42861E-004	0,00000E+000	4,41913E-001	-1,86400E-004	9	...........	-327,67
	444	44,5	8,94672E-002	4,43813E-004	0,00000E+000	4,42913E-001	-1,85200E-004	9	...........	-327,67
	445	44,6	8,96756E-002	4,44830E-004	0,00000E+000	4,43913E-001	-1,81400E-004	9	...........	-327,67
	446	44,7	8,98783E-002	4,45759E-004	0,00000E+000	4,44900E-001	-1,87600E-004	9	...........	-327,67
	447	44,8	9,00860E-002	4,46788E-004	0,00000E+000	4,45900E-001	-1,86200E-004	9	...........	-327,67
	448	44,9	9,02773E-002	4,47637E-004	0,00000E+000	4,46900E-001	-1,80400E-004	9	...........	-327,67
	449	45	9,04805E-002	4,48820E-004	0,00000E+000	4,47900E-001	-1,86200E-004	9	...........	-327,67
	450	45,1	9,07033E-002	4,49843E-004	0,00000E+000	4,48900E-001	-1,79200E-004	9	...........	-327,67
	451	45,2	9,08939E-002	4,50834E-004	0,00000E+000	4,49888E-001	-1,86000E-004	9	...........	-327,67
	452	45,3	9,10889E-002	4,51832E-004	0,00000E+000	4,50888E-001	-1,80000E-004	9	...........	-327,67
	453	45,4	9,12872E-002	4,52841E-004	0,00000E+000	4,51887E-001	-1,85600E-004	9	...........	-327,67
	454	45,5	9,14979E-002	4,53812E-004	0,00000E+000	4,52888E-001	-1,74000E-004	9	...........	-327,67
	455	45,6	9,17065E-002	4,54858E-004	0,00000E+000	4,53888E-001	-1,84400E-004	9	...........	-327,67
	456	45,7	9,18990E-002	4,55828E-004	0,00000E+000	4,54875E-001	-1,85000E-004	9	...........	-327,67
	457	45,8	9,20946E-002	4,56881E-004	0,00000E+000	4,55875E-001	-1,87600E-004	9	...........	-327,67
	458	45,9	9,23239E-002	4,57894E-004	0,00000E+000	4,56875E-001	-1,87600E-004	9	...........	-327,67
	459	46	9,24959E-002	4,58908E-004	0,00000E+000	4,57875E-001	-1,88200E-004	9	...........	-327,67
	460	46,1	9,27013E-002	4,59817E-004	0,00000E+000	4,58875E-001	-1,87000E-004	9	...........	-327,67
	461	46,2	9,29024E-002	4,60876E-004	0,00000E+000	4,59863E-001	-1,91800E-004	9	...........	-327,67
	462	46,3	9,31085E-002	4,61881E-004	0,00000E+000	4,60863E-001	-1,93400E-004	9	...........	-327,67
	463	46,4	9,33030E-002	4,62770E-004	0,00000E+000	4,61863E-001	-1,87800E-004	9	...........	-327,67
	464	46,5	9,34957E-002	4,63815E-004	0,00000E+000	4,62862E-001	-1,90600E-004	9	...........	-327,67
	465	46,6	9,36922E-002	4,64858E-004	0,00000E+000	4,63862E-001	-1,98400E-004	9	...........	-327,67
	466	46,7	9,38972E-002	4,65851E-004	0,00000E+000	4,64850E-001	-1,91000E-004	9	...........	-327,67
	467	46,8	9,41066E-002	4,66901E-004	0,00000E+000	4,65850E-001	-1,95600E-004	9	...........	-327,67
	468	46,9	9,42984E-002	4,67826E-004	0,00000E+000	4,66850E-001	-1,81200E-004	9	...........	-327,67
	469	47	9,44999E-002	4,68884E-004	0,00000E+000	4,67850E-001	-1,88800E-004	9	...........	-327,67
	470	47,1	9,46895E-002	4,69787E-004	0,00000E+000	4,68850E-001	-1,88400E-004	9	...........	-327,67
	471	47,2	9,48944E-002	4,70720E-004	0,00000E+000	4,69837E-001	-1,95400E-004	9	...........	-327,67
	472	47,3	9,50900E-002	4,71691E-004	0,00000E+000	4,70838E-001	-1,88200E-004	9	...........	-327,67
	473	47,4	9,52886E-002	4,72858E-004	0,00000E+000	4,71838E-001	-1,81200E-004	9	...........	-327,67
	474	47,5	9,55000E-002	4,73875E-004	0,00000E+000	4,72838E-001	-1,86800E-004	9	...........	-327,67
	475	47,6	9,57019E-002	4,74827E-004	0,00000E+000	4,73837E-001	-1,97000E-004	9	...........	-327,67
	476	47,7	9,58930E-002	4,75871E-004	0,00000E+000	4,74837E-001	-1,90800E-004	9	...........	-327,67
	477	47,8	9,60963E-002	4,76857E-004	0,00000E+000	4,75825E-001	-1,84600E-004	9	...........	-327,67
	478	47,9	9,63041E-002	4,77824E-004	0,00000E+000	4,76825E-001	-1,90800E-004	9	...........	-327,67
	479	48	9,65103E-002	4,78843E-004	0,00000E+000	4,77825E-001	-1,96600E-004	9	...........	-327,67
	480	48,1	9,67068E-002	4,79879E-004	0,00000E+000	4,78825E-001	-1,86800E-004	9	...........	-327,67
	481	48,2	9,69110E-002	4,80906E-004	0,00000E+000	4,79825E-001	-1,78600E-004	9	...........	-327,67
	482	48,3	9,70987E-002	4,81845E-004	0,00000E+000	4,80812E-001	-1,93200E-004	9	...........	-327,67
	483	48,4	9,73021E-002	4,82763E-004	0,00000E+000	4,81813E-001	-1,83000E-004	9	...........	-327,67
	484	48,5	9,74993E-002	4,83836E-004	0,00000E+000	4,82812E-001	-2,03200E-004	9	...........	-327,67
	485	48,6	9,77013E-002	4,84871E-004	0,00000E+000	4,83813E-001	-1,94800E-004	9	...........	-327,67
	486	48,7	9,78994E-002	4,85830E-004	0,00000E+000	4,84812E-001	-1,79600E-004	9	...........	-327,67
	487	48,8	9,81057E-002	4,86800E-004	0,00000E+000	4,85800E-001	-1,88000E-004	9	...........	-327,67
	488	48,9	9,82998E-002	4,87817E-004	0,00000E+000	4,86800E-001	-1,86400E-004	9	...........	-327,67
	489	49	9,84980E-002	4,88896E-004	0,00000E+000	4,87800E-001	-1,85800E-004	9	...........	-327,67
	490	49,1	9,87051E-002	4,89835E-004	0,00000E+000	4,88800E-001	-1,82000E-004	9	...........	-327,67
	491	49,2	9,89092E-002	4,90860E-004	0,00000E+000	4,89800E-001	-1,83600E-004	9	...........	-327,67
	492	49,3	9,91019E-002	4,91831E-004	0,00000E+000	4,90788E-001	-1,87400E-004	9	...........	-327,67
	493	49,4	9,93094E-002	4,92922E-004	0,00000E+000	4,91787E-001	-1,91800E-004	9	...........	-327,67
	494	49,5	9,95054E-002	4,93849E-004	0,00000E+000	4,92787E-001	-1,84400E-004	9	...........	-327,67
	495	49,6	9,97118E-002	4,94775E-004	0,00000E+000	4,93787E-001	-1,78000E-004	9	...........	-327,67
	496	49,7	9,99118E-002	4,95838E-004	0,00000E+000	4,94788E-001	-1,73000E-004	9	...........	-327,67
	497	49,8	1,00103E-001	4,96925E-004	0,00000E+000	4,95775E-001	-1,96400E-004	9	...........	-327,67
	498	49,9	1,00312E-001	4,97880E-004	0,00000E+000	4,96775E-001	-1,96000E-004	9	...........	-327,67
	499	50	1,00511E-001	4,98678E-004	0,00000E+000	4,97775E-001	-1,89200E-004	9	...........	-327,67
	500	50,1	1,00703E-001	4,99867E-004	0,00000E+000	4,98775E-001	-1,97400E-004	9	...........	-327,67
