EXPLAIN
TAG	LSV
TITLE	LABEL	Linear Sweep Voltammetry	Test Identifier
DATE	LABEL	16/11/2023	Date
TIME	LABEL	9:59:48	Time
NOTES	NOTES	1	Notes...
	
NOMAD
SAMPLEID	 LABEL	CE-NOME_Project_test
ENVIRONMENTID	 LABEL	CE-NOME_Project_test
ECSETUPID	 LABEL	CE-NOME_Project_test
AIRTEMPERATURE	 LABEL	25
AIRPRESSURE	 LABEL	1000
AIRHUMIDITY	 LABEL	50
PSTAT	PSTAT	Louie	Potentiostat
VINIT	POTEN	0.00000E+000	F	Initial E (V)
VFINAL	POTEN	5.00000E-001	F	Final E (V)
SCANRATE	QUANT	9.99998E+001	Scan Rate (mV/s)
STEPSIZE	QUANT	2.00000E+000	Step Size (mV)
IMODE	SELECTOR	0	I/E Range Mode
IRANGE	QUANT	3.00000E-001	Max Current (mA)
AREA	QUANT	1.00000E+000	Sample Area (cm^2)
EQDELAY	QUANT	0.00000E+000	Equil. Time (s)
IRCOMP	SELECTOR	0	IRComp
PFCOR	QUANT	5.00000E+001	PF Corr. (ohm)
SAMPLINGMODE	SELECTOR	1	Sampling Mode
EOC	QUANT	0	Open Circuit (V)
ELECTRODETYPE	SELECTOR	5	Electrode Type
STRIPPING	TOGGLE	F	Used for Stripping
RPM	QUANT	1.00000E+003	Rotation Rate (RPM)
TURNOFF	TOGGLE	F	Output State when Finished
SEQUENCER	TOGGLE	TRUE	Run as Sequence
PSTATMODEL	IQUANT	64	Pstat Model
PSTATSECTION	LABEL	IFC1010-21185	Pstat Section
PSTATSERIALNO	LABEL	21185	Pstat Serial Number
CTRLMODE	IQUANT	1	Control Mode
ELECTROMETER	IQUANT	0	RE=0 or CS=1
IESTAB	IQUANT	2	I/E Stability
CASPEED	IQUANT	3	Control Amp Speed
CONVENTION	IQUANT	1	Current Convention
ICHRANGE	IQUANT	2	Ich Range
ICHRANGEMODE	TOGGLE	F	Ich Auto Range
ICHOFFSETENABLE	TOGGLE	F	Ich Offset Enable
ICHOFFSET	QUANT	0	Ich Offset (V)
ICHFILTER	IQUANT	3	Ich Filter
VCHRANGE	IQUANT	2	Vch Range
VCHRANGEMODE	TOGGLE	F	Vch Auto Range
VCHOFFSETENABLE	TOGGLE	F	Vch Offset Enable
VCHOFFSET	QUANT	0	Vch Offset (V)
VCHFILTER	IQUANT	3	Vch Filter
IERANGELOWERLIMIT	IQUANT	4	I/E Range Lower Limit
IERANGEMODE	TOGGLE	T	I/E AutoRange
IERANGE	IQUANT	9	I/E Range
ACHSELECT	IQUANT	0	Ach Select
ACHRANGE	IQUANT	2	Ach Range
ACHOFFSETENABLE	TOGGLE	F	Ach Offset Enable
ACHOFFSET	QUANT	0	Ach Offset (V)
ACHFILTER	IQUANT	3	Ach Filter
SENSECABLEID	IQUANT	14	Sense Cable ID
PWRCABLEID	IQUANT	14	Power Cable ID
DCCALDATE	LABEL	11/7/2023	DC Calibration Date
ACCALDATE	LABEL	6/11/2018	AC Calibration Date
FRAMEWORKVERSION	LABEL	7.10.0	Framework Version
INSTRUMENTVERSION	LABEL	4.71	Instrument Version
COMMVERSION	LABEL	3.10	Communications Version
CPUPLDVERSION	LABEL	2.22	CPU PLD Version
CTRLPLDVERSION	LABEL	0.00	CTRL PLD Version
PSTATPLDVERSION	LABEL	0.00	PSTAT PLD Version
CURVE	TABLE	251
	Pt	T	Vf	Im	Vu	Sig	Ach	IERange	Over	Cycle	Temp
	#	s	V vs. Ref.	A	V	V	V	#	bits	#	deg C
	0	0.02	3.79184E-004	-2.56289E-004	0.00000E+000	-4.17233E-007	0.00000E+000	9	...........	0	1489.52
	1	0.04	2.41333E-003	-1.90168E-004	0.00000E+000	1.99910E-003	0.00000E+000	9	...........	0	1489.52
	2	0.06	4.39700E-003	-1.50542E-004	0.00000E+000	3.99862E-003	0.00000E+000	9	...........	0	1489.52
	3	0.08	6.37985E-003	-1.20999E-004	0.00000E+000	5.99815E-003	0.00000E+000	9	...........	0	1489.52
	4	0.1	8.39856E-003	-9.68792E-005	0.00000E+000	7.99768E-003	0.00000E+000	9	...........	0	1489.52
	5	0.12	1.03768E-002	-7.75577E-005	0.00000E+000	9.99720E-003	0.00000E+000	9	...........	0	1489.52
	6	0.14	1.23751E-002	-6.14098E-005	0.00000E+000	1.19967E-002	0.00000E+000	8	...........	0	1489.52
	7	0.16	1.44042E-002	-4.68876E-005	0.00000E+000	1.39963E-002	0.00000E+000	8	...........	0	1489.52
	8	0.18	1.63896E-002	-3.45201E-005	0.00000E+000	1.59958E-002	0.00000E+000	8	...........	0	1489.52
	9	0.2	1.83837E-002	-2.30405E-005	0.00000E+000	1.79953E-002	0.00000E+000	8	...........	0	1489.52
	10	0.22	2.03828E-002	-1.25801E-005	0.00000E+000	1.99948E-002	0.00000E+000	8	...........	0	1489.52
	11	0.24	2.23756E-002	-4.37156E-006	0.00000E+000	2.19944E-002	0.00000E+000	8	...........	0	1489.52
	12	0.26	2.43968E-002	3.81780E-006	0.00000E+000	2.39939E-002	0.00000E+000	7	.....h..i..	0	1489.52
	13	0.28	2.64131E-002	9.42337E-006	0.00000E+000	2.60059E-002	0.00000E+000	7	....ih..i..	0	1489.52
	14	0.3	2.84038E-002	1.81286E-005	0.00000E+000	2.80054E-002	0.00000E+000	8	...........	0	1489.52
	15	0.32	3.04109E-002	2.41418E-005	0.00000E+000	3.00050E-002	0.00000E+000	8	...........	0	1489.52
	16	0.34	3.24050E-002	3.02760E-005	0.00000E+000	3.20045E-002	0.00000E+000	8	...........	0	1489.52
	17	0.36	3.44049E-002	3.60155E-005	0.00000E+000	3.40040E-002	0.00000E+000	8	.....h.....	0	1489.52
	18	0.38	3.63902E-002	4.12754E-005	0.00000E+000	3.60035E-002	0.00000E+000	8	.....h.....	0	1489.52
	19	0.4	3.83748E-002	4.52047E-005	0.00000E+000	3.80031E-002	0.00000E+000	8	.....h.....	0	1489.52
	20	0.42	4.03922E-002	5.03891E-005	0.00000E+000	4.00026E-002	0.00000E+000	8	.....h.....	0	1489.52
	21	0.44	4.23796E-002	5.50789E-005	0.00000E+000	4.20021E-002	0.00000E+000	8	.....h.....	0	1489.52
	22	0.46	4.43762E-002	5.93227E-005	0.00000E+000	4.40016E-002	0.00000E+000	8	.....h.....	0	1489.52
	23	0.48	4.63816E-002	6.36122E-005	0.00000E+000	4.60012E-002	0.00000E+000	8	.....h.....	0	1489.52
	24	0.5	4.83711E-002	6.75218E-005	0.00000E+000	4.80007E-002	0.00000E+000	8	.....h.....	0	1489.52
	25	0.52	5.03686E-002	7.13544E-005	0.00000E+000	5.00002E-002	0.00000E+000	8	.....h.....	0	1489.52
	26	0.54	5.24081E-002	7.47312E-005	0.00000E+000	5.19997E-002	0.00000E+000	8	.....h.....	0	1489.52
	27	0.56	5.43960E-002	7.86317E-005	0.00000E+000	5.39993E-002	0.00000E+000	8	.....h.....	0	1489.52
	28	0.58	5.63859E-002	8.27049E-005	0.00000E+000	5.59988E-002	0.00000E+000	8	.....h.....	0	1489.52
	29	0.6	5.83900E-002	8.71788E-005	0.00000E+000	5.79983E-002	0.00000E+000	8	.....h.....	0	1489.52
	30	0.62	6.03641E-002	9.17032E-005	0.00000E+000	5.99978E-002	0.00000E+000	8	.....h.....	0	1489.52
	31	0.64	6.23837E-002	9.57392E-005	0.00000E+000	6.19974E-002	0.00000E+000	9	...........	0	1489.52
	32	0.66	6.44070E-002	9.97415E-005	0.00000E+000	6.39969E-002	0.00000E+000	9	...........	0	1489.52
	33	0.68	6.64173E-002	1.04045E-004	0.00000E+000	6.59964E-002	0.00000E+000	9	...........	0	1489.52
	34	0.7	6.83856E-002	1.09020E-004	0.00000E+000	6.79960E-002	0.00000E+000	9	...........	0	1489.52
	35	0.72	7.03813E-002	1.13886E-004	0.00000E+000	6.99955E-002	0.00000E+000	9	...........	0	1489.52
	36	0.74	7.23817E-002	1.19231E-004	0.00000E+000	7.19950E-002	0.00000E+000	9	...........	0	1489.52
	37	0.76	7.43704E-002	1.24422E-004	0.00000E+000	7.39945E-002	0.00000E+000	9	...........	0	1489.52
	38	0.78	7.63641E-002	1.30016E-004	0.00000E+000	7.59940E-002	0.00000E+000	9	...........	0	1489.52
	39	0.8	7.84024E-002	1.36188E-004	0.00000E+000	7.80061E-002	0.00000E+000	9	...........	0	1489.52
	40	0.82	8.04044E-002	1.42594E-004	0.00000E+000	8.00056E-002	0.00000E+000	9	...........	0	1489.52
	41	0.84	8.23827E-002	1.48595E-004	0.00000E+000	8.20051E-002	0.00000E+000	9	...........	0	1489.06
	42	0.86	8.44014E-002	1.56286E-004	0.00000E+000	8.40046E-002	0.00000E+000	9	...........	0	1489.06
	43	0.88	8.63842E-002	1.63524E-004	0.00000E+000	8.60042E-002	0.00000E+000	9	...........	0	1489.06
	44	0.9	8.83913E-002	1.72445E-004	0.00000E+000	8.80037E-002	0.00000E+000	9	...........	0	1489.06
	45	0.92	9.04129E-002	1.81008E-004	0.00000E+000	9.00032E-002	0.00000E+000	9	...........	0	1489.06
	46	0.94	9.23828E-002	1.89991E-004	0.00000E+000	9.20027E-002	0.00000E+000	9	...........	0	1489.06
	47	0.96	9.43965E-002	1.99843E-004	0.00000E+000	9.40023E-002	0.00000E+000	9	...........	0	1489.06
	48	0.98	9.63889E-002	2.09502E-004	0.00000E+000	9.60018E-002	0.00000E+000	9	...........	0	1489.06
	49	1	9.83876E-002	2.20924E-004	0.00000E+000	9.80013E-002	0.00000E+000	9	...........	0	1489.06
	50	1.02	1.00370E-001	2.32156E-004	0.00000E+000	1.00001E-001	0.00000E+000	9	...........	0	1489.06
	51	1.04	1.02363E-001	2.44016E-004	0.00000E+000	1.02000E-001	0.00000E+000	9	...........	0	1489.06
	52	1.06	1.04407E-001	2.56715E-004	0.00000E+000	1.04000E-001	0.00000E+000	9	...........	0	1489.06
	53	1.08	1.06384E-001	2.70066E-004	0.00000E+000	1.05999E-001	0.00000E+000	9	...........	0	1489.06
	54	1.1	1.08376E-001	2.84085E-004	0.00000E+000	1.07999E-001	0.00000E+000	9	...........	0	1489.06
	55	1.12	1.10384E-001	2.97885E-004	0.00000E+000	1.09998E-001	0.00000E+000	9	...........	0	1489.06
	56	1.14	1.12371E-001	3.14401E-004	0.00000E+000	1.11998E-001	0.00000E+000	9	...........	0	1489.06
	57	1.16	1.14370E-001	3.29602E-004	0.00000E+000	1.13998E-001	0.00000E+000	9	...........	0	1489.06
	58	1.18	1.16380E-001	3.45013E-004	0.00000E+000	1.15997E-001	0.00000E+000	9	...........	0	1489.06
	59	1.2	1.18392E-001	3.61283E-004	0.00000E+000	1.17997E-001	0.00000E+000	9	...........	0	1489.06
	60	1.22	1.20400E-001	3.79304E-004	0.00000E+000	1.19996E-001	0.00000E+000	9	...........	0	1489.06
	61	1.24	1.22391E-001	3.97284E-004	0.00000E+000	1.21996E-001	0.00000E+000	9	...........	0	1489.06
	62	1.26	1.24382E-001	4.15334E-004	0.00000E+000	1.23995E-001	0.00000E+000	9	...........	0	1489.06
	63	1.28	1.26363E-001	4.34767E-004	0.00000E+000	1.25995E-001	0.00000E+000	9	...........	0	1489.06
	64	1.3	1.28352E-001	4.53220E-004	0.00000E+000	1.27994E-001	0.00000E+000	9	...........	0	1489.06
	65	1.32	1.30385E-001	4.73493E-004	0.00000E+000	1.29994E-001	0.00000E+000	9	...........	0	1489.06
	66	1.34	1.32391E-001	4.93853E-004	0.00000E+000	1.32006E-001	0.00000E+000	9	...........	0	1489.06
	67	1.36	1.34397E-001	5.13369E-004	0.00000E+000	1.34005E-001	0.00000E+000	9	...........	0	1489.06
	68	1.38	1.36389E-001	5.33166E-004	0.00000E+000	1.36005E-001	0.00000E+000	9	...........	0	1489.06
	69	1.4	1.38375E-001	5.54606E-004	0.00000E+000	1.38004E-001	0.00000E+000	9	...........	0	1489.06
	70	1.42	1.40378E-001	5.76264E-004	0.00000E+000	1.40004E-001	0.00000E+000	9	...........	0	1489.06
	71	1.44	1.42397E-001	5.96985E-004	0.00000E+000	1.42003E-001	0.00000E+000	9	...........	0	1489.06
	72	1.46	1.44390E-001	6.19002E-004	0.00000E+000	1.44003E-001	0.00000E+000	9	...........	0	1489.06
	73	1.48	1.46376E-001	6.39764E-004	0.00000E+000	1.46002E-001	0.00000E+000	9	...........	0	1489.06
	74	1.5	1.48377E-001	6.61804E-004	0.00000E+000	1.48002E-001	0.00000E+000	9	...........	0	1489.06
	75	1.52	1.50381E-001	6.83593E-004	0.00000E+000	1.50001E-001	0.00000E+000	9	...........	0	1489.06
	76	1.54	1.52374E-001	7.05217E-004	0.00000E+000	1.52001E-001	0.00000E+000	9	...........	0	1489.06
	77	1.56	1.54368E-001	7.26423E-004	0.00000E+000	1.54001E-001	0.00000E+000	9	...........	0	1489.06
	78	1.58	1.56377E-001	7.48853E-004	0.00000E+000	1.56000E-001	0.00000E+000	9	...........	0	1489.06
	79	1.6	1.58391E-001	7.70103E-004	0.00000E+000	1.58000E-001	0.00000E+000	9	...........	0	1489.06
	80	1.62	1.60380E-001	7.91869E-004	0.00000E+000	1.59999E-001	0.00000E+000	9	...........	0	1489.06
	81	1.64	1.62384E-001	8.13651E-004	0.00000E+000	1.61999E-001	0.00000E+000	9	...........	0	1489.06
	82	1.66	1.64374E-001	8.34388E-004	0.00000E+000	1.63998E-001	0.00000E+000	9	...........	0	1489.06
	83	1.68	1.66371E-001	8.56055E-004	0.00000E+000	1.65998E-001	0.00000E+000	9	...........	0	1489.06
	84	1.7	1.68382E-001	8.77735E-004	0.00000E+000	1.67997E-001	0.00000E+000	9	...........	0	1489.06
	85	1.72	1.70394E-001	8.97898E-004	0.00000E+000	1.69997E-001	0.00000E+000	9	...........	0	1489.06
	86	1.74	1.72387E-001	9.19015E-004	0.00000E+000	1.71996E-001	0.00000E+000	10	...........	0	1489.06
	87	1.76	1.74385E-001	9.39716E-004	0.00000E+000	1.73996E-001	0.00000E+000	10	...........	0	1489.06
	88	1.78	1.76370E-001	9.60209E-004	0.00000E+000	1.75995E-001	0.00000E+000	10	...........	0	1489.06
	89	1.8	1.78375E-001	9.79654E-004	0.00000E+000	1.77995E-001	0.00000E+000	10	...........	0	1489.06
	90	1.82	1.80381E-001	9.99650E-004	0.00000E+000	1.79994E-001	0.00000E+000	10	...........	0	1489.06
	91	1.84	1.82384E-001	1.01875E-003	0.00000E+000	1.81994E-001	0.00000E+000	10	...........	0	1488.33
	92	1.86	1.84389E-001	1.03864E-003	0.00000E+000	1.83993E-001	0.00000E+000	10	...........	0	1488.33
	93	1.88	1.86393E-001	1.05792E-003	0.00000E+000	1.86005E-001	0.00000E+000	10	...........	0	1488.33
	94	1.9	1.88388E-001	1.07672E-003	0.00000E+000	1.88005E-001	0.00000E+000	10	...........	0	1488.33
	95	1.92	1.90390E-001	1.09447E-003	0.00000E+000	1.90004E-001	0.00000E+000	10	...........	0	1488.33
	96	1.94	1.92380E-001	1.11243E-003	0.00000E+000	1.92004E-001	0.00000E+000	10	...........	0	1488.33
	97	1.96	1.94396E-001	1.13075E-003	0.00000E+000	1.94004E-001	0.00000E+000	10	...........	0	1488.33
	98	1.98	1.96418E-001	1.14767E-003	0.00000E+000	1.96003E-001	0.00000E+000	10	...........	0	1488.33
	99	2	1.98373E-001	1.16526E-003	0.00000E+000	1.98003E-001	0.00000E+000	10	...........	0	1488.33
	100	2.02	2.00394E-001	1.18213E-003	0.00000E+000	2.00002E-001	0.00000E+000	10	...........	0	1488.33
	101	2.04	2.02378E-001	1.19837E-003	0.00000E+000	2.02002E-001	0.00000E+000	10	...........	0	1488.33
	102	2.06	2.04378E-001	1.21419E-003	0.00000E+000	2.04001E-001	0.00000E+000	10	...........	0	1488.33
	103	2.08	2.06417E-001	1.23040E-003	0.00000E+000	2.06001E-001	0.00000E+000	10	...........	0	1488.33
	104	2.1	2.08389E-001	1.24605E-003	0.00000E+000	2.08000E-001	0.00000E+000	10	...........	0	1488.33
	105	2.12	2.10391E-001	1.26105E-003	0.00000E+000	2.10000E-001	0.00000E+000	10	...........	0	1488.33
	106	2.14	2.12386E-001	1.27562E-003	0.00000E+000	2.11999E-001	0.00000E+000	10	...........	0	1488.33
	107	2.16	2.14384E-001	1.29094E-003	0.00000E+000	2.13999E-001	0.00000E+000	10	...........	0	1488.33
	108	2.18	2.16375E-001	1.30474E-003	0.00000E+000	2.15998E-001	0.00000E+000	10	...........	0	1488.33
	109	2.2	2.18399E-001	1.31886E-003	0.00000E+000	2.17998E-001	0.00000E+000	10	...........	0	1488.33
	110	2.22	2.20398E-001	1.33277E-003	0.00000E+000	2.19997E-001	0.00000E+000	10	...........	0	1488.33
	111	2.24	2.22385E-001	1.34718E-003	0.00000E+000	2.21997E-001	0.00000E+000	10	...........	0	1488.33
	112	2.26	2.24374E-001	1.36012E-003	0.00000E+000	2.23996E-001	0.00000E+000	10	...........	0	1488.33
	113	2.28	2.26390E-001	1.37376E-003	0.00000E+000	2.25996E-001	0.00000E+000	10	...........	0	1488.33
	114	2.3	2.28380E-001	1.38656E-003	0.00000E+000	2.27995E-001	0.00000E+000	10	...........	0	1488.33
	115	2.32	2.30368E-001	1.39932E-003	0.00000E+000	2.29995E-001	0.00000E+000	10	...........	0	1488.33
	116	2.34	2.32403E-001	1.41175E-003	0.00000E+000	2.31995E-001	0.00000E+000	10	...........	0	1488.33
	117	2.36	2.34403E-001	1.42424E-003	0.00000E+000	2.33994E-001	0.00000E+000	10	...........	0	1488.33
	118	2.38	2.36396E-001	1.43612E-003	0.00000E+000	2.35994E-001	0.00000E+000	10	...........	0	1488.33
	119	2.4	2.38410E-001	1.44866E-003	0.00000E+000	2.38006E-001	0.00000E+000	10	...........	0	1488.33
	120	2.42	2.40401E-001	1.46078E-003	0.00000E+000	2.40005E-001	0.00000E+000	10	...........	0	1488.33
	121	2.44	2.42383E-001	1.47125E-003	0.00000E+000	2.42005E-001	0.00000E+000	10	...........	0	1488.33
	122	2.46	2.44391E-001	1.48406E-003	0.00000E+000	2.44004E-001	0.00000E+000	10	...........	0	1488.33
	123	2.48	2.46389E-001	1.49528E-003	0.00000E+000	2.46004E-001	0.00000E+000	10	...........	0	1488.33
	124	2.5	2.48386E-001	1.50734E-003	0.00000E+000	2.48003E-001	0.00000E+000	10	...........	0	1488.33
	125	2.52	2.50372E-001	1.51766E-003	0.00000E+000	2.50003E-001	0.00000E+000	10	...........	0	1488.33
	126	2.54	2.52368E-001	1.52916E-003	0.00000E+000	2.52002E-001	0.00000E+000	10	...........	0	1488.33
	127	2.56	2.54378E-001	1.54048E-003	0.00000E+000	2.54002E-001	0.00000E+000	10	...........	0	1488.33
	128	2.58	2.56381E-001	1.55015E-003	0.00000E+000	2.56001E-001	0.00000E+000	10	...........	0	1488.33
	129	2.6	2.58406E-001	1.56126E-003	0.00000E+000	2.58001E-001	0.00000E+000	10	...........	0	1488.33
	130	2.62	2.60388E-001	1.57217E-003	0.00000E+000	2.60000E-001	0.00000E+000	10	...........	0	1488.33
	131	2.64	2.62413E-001	1.58159E-003	0.00000E+000	2.62000E-001	0.00000E+000	10	...........	0	1488.33
	132	2.66	2.64400E-001	1.59273E-003	0.00000E+000	2.63999E-001	0.00000E+000	10	...........	0	1488.33
	133	2.68	2.66377E-001	1.60297E-003	0.00000E+000	2.65999E-001	0.00000E+000	10	...........	0	1488.33
	134	2.7	2.68376E-001	1.61401E-003	0.00000E+000	2.67999E-001	0.00000E+000	10	...........	0	1488.33
	135	2.72	2.70393E-001	1.62470E-003	0.00000E+000	2.69998E-001	0.00000E+000	10	...........	0	1488.33
	136	2.74	2.72409E-001	1.63465E-003	0.00000E+000	2.71998E-001	0.00000E+000	10	...........	0	1488.33
	137	2.76	2.74404E-001	1.64513E-003	0.00000E+000	2.73997E-001	0.00000E+000	10	...........	0	1488.33
	138	2.78	2.76402E-001	1.65476E-003	0.00000E+000	2.75997E-001	0.00000E+000	10	...........	0	1488.33
	139	2.8	2.78395E-001	1.66480E-003	0.00000E+000	2.77996E-001	0.00000E+000	10	...........	0	1488.33
	140	2.82	2.80382E-001	1.67555E-003	0.00000E+000	2.79996E-001	0.00000E+000	10	...........	0	1488.33
	141	2.84	2.82403E-001	1.68517E-003	0.00000E+000	2.81995E-001	0.00000E+000	10	...........	0	1488.42
	142	2.86	2.84397E-001	1.69535E-003	0.00000E+000	2.83995E-001	0.00000E+000	10	...........	0	1488.42
	143	2.88	2.86396E-001	1.70602E-003	0.00000E+000	2.85994E-001	0.00000E+000	10	...........	0	1488.42
	144	2.9	2.88392E-001	1.71652E-003	0.00000E+000	2.87994E-001	0.00000E+000	10	...........	0	1488.42
	145	2.92	2.90395E-001	1.72563E-003	0.00000E+000	2.89993E-001	0.00000E+000	10	...........	0	1488.42
	146	2.94	2.92394E-001	1.73620E-003	0.00000E+000	2.92005E-001	0.00000E+000	10	...........	0	1488.42
	147	2.96	2.94397E-001	1.74614E-003	0.00000E+000	2.94005E-001	0.00000E+000	10	...........	0	1488.42
	148	2.98	2.96419E-001	1.75581E-003	0.00000E+000	2.96004E-001	0.00000E+000	10	...........	0	1488.42
	149	3	2.98435E-001	1.76493E-003	0.00000E+000	2.98004E-001	0.00000E+000	10	...........	0	1488.42
	150	3.02	3.00392E-001	1.77512E-003	0.00000E+000	3.00003E-001	0.00000E+000	10	...........	0	1488.42
	151	3.04	3.02397E-001	1.78454E-003	0.00000E+000	3.02003E-001	0.00000E+000	10	...........	0	1488.42
	152	3.06	3.04385E-001	1.79445E-003	0.00000E+000	3.04002E-001	0.00000E+000	10	...........	0	1488.42
	153	3.08	3.06391E-001	1.80407E-003	0.00000E+000	3.06002E-001	0.00000E+000	10	...........	0	1488.42
	154	3.1	3.08410E-001	1.81390E-003	0.00000E+000	3.08002E-001	0.00000E+000	10	...........	0	1488.42
	155	3.12	3.10420E-001	1.82382E-003	0.00000E+000	3.10001E-001	0.00000E+000	10	...........	0	1488.42
	156	3.14	3.12407E-001	1.83299E-003	0.00000E+000	3.12001E-001	0.00000E+000	10	...........	0	1488.42
	157	3.16	3.14416E-001	1.84239E-003	0.00000E+000	3.14000E-001	0.00000E+000	10	...........	0	1488.42
	158	3.18	3.16407E-001	1.85153E-003	0.00000E+000	3.16000E-001	0.00000E+000	10	...........	0	1488.42
	159	3.2	3.18405E-001	1.86122E-003	0.00000E+000	3.17999E-001	0.00000E+000	10	...........	0	1488.42
	160	3.22	3.20397E-001	1.87084E-003	0.00000E+000	3.19999E-001	0.00000E+000	10	...........	0	1488.42
	161	3.24	3.22422E-001	1.87966E-003	0.00000E+000	3.21998E-001	0.00000E+000	10	...........	0	1488.42
	162	3.26	3.24432E-001	1.88857E-003	0.00000E+000	3.23998E-001	0.00000E+000	10	...........	0	1488.42
	163	3.28	3.26404E-001	1.89780E-003	0.00000E+000	3.25997E-001	0.00000E+000	10	...........	0	1488.42
	164	3.3	3.28398E-001	1.90700E-003	0.00000E+000	3.27997E-001	0.00000E+000	10	...........	0	1488.42
	165	3.32	3.30402E-001	1.91627E-003	0.00000E+000	3.29996E-001	0.00000E+000	10	...........	0	1488.42
	166	3.34	3.32396E-001	1.92494E-003	0.00000E+000	3.31996E-001	0.00000E+000	10	...........	0	1488.42
	167	3.36	3.34406E-001	1.93380E-003	0.00000E+000	3.33995E-001	0.00000E+000	10	...........	0	1488.42
	168	3.38	3.36410E-001	1.94156E-003	0.00000E+000	3.35995E-001	0.00000E+000	10	...........	0	1488.42
	169	3.4	3.38422E-001	1.95005E-003	0.00000E+000	3.37994E-001	0.00000E+000	10	...........	0	1488.42
	170	3.42	3.40406E-001	1.95867E-003	0.00000E+000	3.39994E-001	0.00000E+000	10	...........	0	1488.42
	171	3.44	3.42414E-001	1.96653E-003	0.00000E+000	3.41993E-001	0.00000E+000	10	...........	0	1488.42
	172	3.46	3.44398E-001	1.97485E-003	0.00000E+000	3.44005E-001	0.00000E+000	10	...........	0	1488.42
	173	3.48	3.46413E-001	1.98316E-003	0.00000E+000	3.46005E-001	0.00000E+000	10	...........	0	1488.42
	174	3.5	3.48391E-001	1.99148E-003	0.00000E+000	3.48005E-001	0.00000E+000	10	...........	0	1488.42
	175	3.52	3.50394E-001	1.99864E-003	0.00000E+000	3.50004E-001	0.00000E+000	10	...........	0	1488.42
	176	3.54	3.52387E-001	2.00657E-003	0.00000E+000	3.52004E-001	0.00000E+000	10	...........	0	1488.42
	177	3.56	3.54420E-001	2.01282E-003	0.00000E+000	3.54003E-001	0.00000E+000	10	...........	0	1488.42
	178	3.58	3.56403E-001	2.01930E-003	0.00000E+000	3.56003E-001	0.00000E+000	10	...........	0	1488.42
	179	3.6	3.58364E-001	2.02741E-003	0.00000E+000	3.58002E-001	0.00000E+000	10	...........	0	1488.42
	180	3.62	3.60388E-001	2.03467E-003	0.00000E+000	3.60002E-001	0.00000E+000	10	...........	0	1488.42
	181	3.64	3.62410E-001	2.04167E-003	0.00000E+000	3.62001E-001	0.00000E+000	10	...........	0	1488.42
	182	3.66	3.64407E-001	2.04794E-003	0.00000E+000	3.64001E-001	0.00000E+000	10	...........	0	1488.42
	183	3.68	3.66414E-001	2.05473E-003	0.00000E+000	3.66000E-001	0.00000E+000	10	...........	0	1488.42
	184	3.7	3.68396E-001	2.06134E-003	0.00000E+000	3.68000E-001	0.00000E+000	10	...........	0	1488.42
	185	3.72	3.70394E-001	2.06682E-003	0.00000E+000	3.69999E-001	0.00000E+000	10	...........	0	1488.42
	186	3.74	3.72406E-001	2.07333E-003	0.00000E+000	3.71999E-001	0.00000E+000	10	...........	0	1488.42
	187	3.76	3.74412E-001	2.07980E-003	0.00000E+000	3.73998E-001	0.00000E+000	10	...........	0	1488.42
	188	3.78	3.76395E-001	2.08553E-003	0.00000E+000	3.75998E-001	0.00000E+000	10	...........	0	1488.42
	189	3.8	3.78395E-001	2.09102E-003	0.00000E+000	3.77997E-001	0.00000E+000	10	...........	0	1488.42
	190	3.82	3.80400E-001	2.09568E-003	0.00000E+000	3.79997E-001	0.00000E+000	10	...........	0	1488.42
	191	3.84	3.82388E-001	2.10100E-003	0.00000E+000	3.81996E-001	0.00000E+000	10	...........	0	1488.33
	192	3.86	3.84388E-001	2.10653E-003	0.00000E+000	3.83996E-001	0.00000E+000	10	...........	0	1488.33
	193	3.88	3.86418E-001	2.11106E-003	0.00000E+000	3.85996E-001	0.00000E+000	10	...........	0	1488.33
	194	3.9	3.88410E-001	2.11618E-003	0.00000E+000	3.87995E-001	0.00000E+000	10	...........	0	1488.33
	195	3.92	3.90393E-001	2.12066E-003	0.00000E+000	3.89995E-001	0.00000E+000	10	...........	0	1488.33
	196	3.94	3.92410E-001	2.12498E-003	0.00000E+000	3.91994E-001	0.00000E+000	10	...........	0	1488.33
	197	3.96	3.94389E-001	2.12951E-003	0.00000E+000	3.93994E-001	0.00000E+000	10	...........	0	1488.33
	198	3.98	3.96372E-001	2.13378E-003	0.00000E+000	3.95993E-001	0.00000E+000	10	...........	0	1488.33
	199	4	3.98407E-001	2.13849E-003	0.00000E+000	3.98005E-001	0.00000E+000	10	...........	0	1488.33
	200	4.02	4.00406E-001	2.14216E-003	0.00000E+000	4.00005E-001	0.00000E+000	10	...........	0	1488.33
	201	4.04	4.02403E-001	2.14575E-003	0.00000E+000	4.02004E-001	0.00000E+000	10	...........	0	1488.33
	202	4.06	4.04390E-001	2.14909E-003	0.00000E+000	4.04004E-001	0.00000E+000	10	...........	0	1488.33
	203	4.08	4.06382E-001	2.15217E-003	0.00000E+000	4.06003E-001	0.00000E+000	10	...........	0	1488.33
	204	4.1	4.08392E-001	2.15658E-003	0.00000E+000	4.08003E-001	0.00000E+000	10	...........	0	1488.33
	205	4.12	4.10402E-001	2.15922E-003	0.00000E+000	4.10002E-001	0.00000E+000	10	...........	0	1488.33
	206	4.14	4.12404E-001	2.16166E-003	0.00000E+000	4.12002E-001	0.00000E+000	10	...........	0	1488.33
	207	4.16	4.14405E-001	2.16525E-003	0.00000E+000	4.14001E-001	0.00000E+000	10	...........	0	1488.33
	208	4.18	4.16404E-001	2.16760E-003	0.00000E+000	4.16001E-001	0.00000E+000	10	...........	0	1488.33
	209	4.2	4.18409E-001	2.17022E-003	0.00000E+000	4.18000E-001	0.00000E+000	10	...........	0	1488.33
	210	4.22	4.20402E-001	2.17231E-003	0.00000E+000	4.20000E-001	0.00000E+000	10	...........	0	1488.33
	211	4.24	4.22395E-001	2.17493E-003	0.00000E+000	4.21999E-001	0.00000E+000	10	...........	0	1488.33
	212	4.26	4.24402E-001	2.17737E-003	0.00000E+000	4.23999E-001	0.00000E+000	10	...........	0	1488.33
	213	4.28	4.26411E-001	2.17958E-003	0.00000E+000	4.25999E-001	0.00000E+000	10	...........	0	1488.33
	214	4.3	4.28382E-001	2.18111E-003	0.00000E+000	4.27998E-001	0.00000E+000	10	...........	0	1488.33
	215	4.32	4.30379E-001	2.18326E-003	0.00000E+000	4.29998E-001	0.00000E+000	10	...........	0	1488.33
	216	4.34	4.32376E-001	2.18519E-003	0.00000E+000	4.31997E-001	0.00000E+000	10	...........	0	1488.33
	217	4.36	4.34388E-001	2.18716E-003	0.00000E+000	4.33997E-001	0.00000E+000	10	...........	0	1488.33
	218	4.38	4.36404E-001	2.18781E-003	0.00000E+000	4.35996E-001	0.00000E+000	10	...........	0	1488.33
	219	4.4	4.38388E-001	2.18925E-003	0.00000E+000	4.37996E-001	0.00000E+000	10	...........	0	1488.33
	220	4.42	4.40392E-001	2.19041E-003	0.00000E+000	4.39995E-001	0.00000E+000	10	...........	0	1488.33
	221	4.44	4.42404E-001	2.19175E-003	0.00000E+000	4.41995E-001	0.00000E+000	10	...........	0	1488.33
	222	4.46	4.44387E-001	2.19342E-003	0.00000E+000	4.43994E-001	0.00000E+000	10	...........	0	1488.33
	223	4.48	4.46384E-001	2.19444E-003	0.00000E+000	4.45994E-001	0.00000E+000	10	...........	0	1488.33
	224	4.5	4.48372E-001	2.19449E-003	0.00000E+000	4.47993E-001	0.00000E+000	10	...........	0	1488.33
	225	4.52	4.50416E-001	2.19615E-003	0.00000E+000	4.50005E-001	0.00000E+000	10	...........	0	1488.33
	226	4.54	4.52400E-001	2.19661E-003	0.00000E+000	4.52005E-001	0.00000E+000	10	...........	0	1488.33
	227	4.56	4.54388E-001	2.19717E-003	0.00000E+000	4.54004E-001	0.00000E+000	10	...........	0	1488.33
	228	4.58	4.56388E-001	2.19805E-003	0.00000E+000	4.56004E-001	0.00000E+000	10	...........	0	1488.33
	229	4.6	4.58386E-001	2.19891E-003	0.00000E+000	4.58003E-001	0.00000E+000	10	...........	0	1488.33
	230	4.62	4.60374E-001	2.19892E-003	0.00000E+000	4.60003E-001	0.00000E+000	10	...........	0	1488.33
	231	4.64	4.62413E-001	2.19910E-003	0.00000E+000	4.62002E-001	0.00000E+000	10	...........	0	1488.33
	232	4.66	4.64405E-001	2.19919E-003	0.00000E+000	4.64002E-001	0.00000E+000	10	...........	0	1488.33
	233	4.68	4.66400E-001	2.19879E-003	0.00000E+000	4.66002E-001	0.00000E+000	10	...........	0	1488.33
	234	4.7	4.68395E-001	2.20001E-003	0.00000E+000	4.68001E-001	0.00000E+000	10	...........	0	1488.33
	235	4.72	4.70387E-001	2.20028E-003	0.00000E+000	4.70001E-001	0.00000E+000	10	...........	0	1488.33
	236	4.74	4.72389E-001	2.20006E-003	0.00000E+000	4.72000E-001	0.00000E+000	10	...........	0	1488.33
	237	4.76	4.74415E-001	2.19935E-003	0.00000E+000	4.74000E-001	0.00000E+000	10	...........	0	1488.33
	238	4.78	4.76386E-001	2.19904E-003	0.00000E+000	4.75999E-001	0.00000E+000	10	...........	0	1488.33
	239	4.8	4.78378E-001	2.19917E-003	0.00000E+000	4.77999E-001	0.00000E+000	10	...........	0	1488.33
	240	4.82	4.80372E-001	2.19903E-003	0.00000E+000	4.79998E-001	0.00000E+000	10	...........	0	1488.33
	241	4.84	4.82401E-001	2.19875E-003	0.00000E+000	4.81998E-001	0.00000E+000	10	...........	0	1488.42
	242	4.86	4.84390E-001	2.19747E-003	0.00000E+000	4.83997E-001	0.00000E+000	10	...........	0	1488.42
	243	4.88	4.86381E-001	2.19738E-003	0.00000E+000	4.85997E-001	0.00000E+000	10	...........	0	1488.42
	244	4.9	4.88403E-001	2.19764E-003	0.00000E+000	4.87996E-001	0.00000E+000	10	...........	0	1488.42
	245	4.92	4.90416E-001	2.19632E-003	0.00000E+000	4.89996E-001	0.00000E+000	10	...........	0	1488.42
	246	4.94	4.92416E-001	2.19501E-003	0.00000E+000	4.91995E-001	0.00000E+000	10	...........	0	1488.42
	247	4.96	4.94404E-001	2.19467E-003	0.00000E+000	4.93995E-001	0.00000E+000	10	...........	0	1488.42
	248	4.98	4.96378E-001	2.19526E-003	0.00000E+000	4.95994E-001	0.00000E+000	10	...........	0	1488.42
	249	5	4.98387E-001	2.19374E-003	0.00000E+000	4.97994E-001	0.00000E+000	10	...........	0	1488.42
	250	5.02	5.00404E-001	2.19302E-003	0.00000E+000	4.99993E-001	0.00000E+000	10	...........	0	1488.42
