EXPLAIN
TAG	COLLECT
TITLE	LABEL	LSV at WE1 and CA at WE2	Test Identifier
DATE	LABEL	16/11/2023	Date
TIME	LABEL	10:49:53	Time
NOTES	NOTES	1	Notes...
	
NOMAD
METHOD	LSV-CA
SAMPLEID	 LABEL	CE-NOME_Project_test
ENVIRONMENTID	 LABEL	CE-NOME_Project_test
ECSETUPID	 LABEL	CE-NOME_Project_test
AIRTEMPERATURE	 LABEL	25
AIRPRESSURE	 LABEL	1000
AIRHUMIDITY	 LABEL	50

PSTAT GENERATOR	PSTAT	Louie	Potentiostat
PSTATMODEL	IQUANT	64	Pstat Model
PSTATSECTION	LABEL	IFC1010-21185	Pstat Section
PSTATSERIALNO	LABEL	21185	Pstat Serial Number
CTRLMODE	IQUANT	1	Control Mode
ELECTROMETER	IQUANT	0	RE=0 or CS=1
IESTAB	IQUANT	2	I/E Stability
CASPEED	IQUANT	3	Control Amp Speed
CONVENTION	IQUANT	1	Current Convention
ICHRANGE	IQUANT	2	Ich Range
ICHRANGEMODE	TOGGLE	F	Ich Auto Range
ICHOFFSETENABLE	TOGGLE	F	Ich Offset Enable
ICHOFFSET	QUANT	0	Ich Offset (V)
ICHFILTER	IQUANT	3	Ich Filter
VCHRANGE	IQUANT	2	Vch Range
VCHRANGEMODE	TOGGLE	F	Vch Auto Range
VCHOFFSETENABLE	TOGGLE	F	Vch Offset Enable
VCHOFFSET	QUANT	0	Vch Offset (V)
VCHFILTER	IQUANT	3	Vch Filter
IERANGELOWERLIMIT	IQUANT	4	I/E Range Lower Limit
IERANGEMODE	TOGGLE	F	I/E AutoRange
IERANGE	IQUANT	9	I/E Range
ACHSELECT	IQUANT	0	Ach Select
ACHRANGE	IQUANT	2	Ach Range
ACHOFFSETENABLE	TOGGLE	F	Ach Offset Enable
ACHOFFSET	QUANT	0	Ach Offset (V)
ACHFILTER	IQUANT	3	Ach Filter
SENSECABLEID	IQUANT	14	Sense Cable ID
PWRCABLEID	IQUANT	14	Power Cable ID
DCCALDATE	LABEL	11/7/2023	DC Calibration Date
ACCALDATE	LABEL	6/11/2018	AC Calibration Date
FRAMEWORKVERSION	LABEL	7.10.0	Framework Version
INSTRUMENTVERSION	LABEL	4.71	Instrument Version
COMMVERSION	LABEL	3.10	Communications Version
CPUPLDVERSION	LABEL	2.22	CPU PLD Version
CTRLPLDVERSION	LABEL	0.00	CTRL PLD Version
PSTATPLDVERSION	LABEL	0.00	PSTAT PLD Version

PSTAT COLLECTOR	PSTAT	Hare	Potentiostat
PSTATMODEL	IQUANT	48	Pstat Model
PSTATSECTION	LABEL	IFC1000-06095	Pstat Section
PSTATSERIALNO	LABEL	06095	Pstat Serial Number
CTRLMODE	IQUANT	1	Control Mode
ELECTROMETER	IQUANT	0	RE=0 or CS=1
IESTAB	IQUANT	2	I/E Stability
CASPEED	IQUANT	3	Control Amp Speed
CONVENTION	IQUANT	1	Current Convention
ICHRANGE	IQUANT	2	Ich Range
ICHRANGEMODE	TOGGLE	F	Ich Auto Range
ICHOFFSETENABLE	TOGGLE	F	Ich Offset Enable
ICHOFFSET	QUANT	0	Ich Offset (V)
ICHFILTER	IQUANT	3	Ich Filter
VCHRANGE	IQUANT	2	Vch Range
VCHRANGEMODE	TOGGLE	T	Vch Auto Range
VCHOFFSETENABLE	TOGGLE	F	Vch Offset Enable
VCHOFFSET	QUANT	0	Vch Offset (V)
VCHFILTER	IQUANT	3	Vch Filter
IERANGELOWERLIMIT	IQUANT	4	I/E Range Lower Limit
IERANGEMODE	TOGGLE	F	I/E AutoRange
IERANGE	IQUANT	9	I/E Range
ACHSELECT	IQUANT	0	Ach Select
ACHRANGE	IQUANT	2	Ach Range
ACHOFFSETENABLE	TOGGLE	F	Ach Offset Enable
ACHOFFSET	QUANT	0	Ach Offset (V)
ACHFILTER	IQUANT	3	Ach Filter
SENSECABLEID	IQUANT	14	Sense Cable ID
PWRCABLEID	IQUANT	14	Power Cable ID
DCCALDATE	LABEL	1/11/2023	DC Calibration Date
ACCALDATE	LABEL	2/24/2014	AC Calibration Date
FRAMEWORKVERSION	LABEL	7.10.0	Framework Version
INSTRUMENTVERSION	LABEL	4.71	Instrument Version
COMMVERSION	LABEL	3.10	Communications Version
CPUPLDVERSION	LABEL	1.10	CPU PLD Version
CTRLPLDVERSION	LABEL	0.00	CTRL PLD Version
PSTATPLDVERSION	LABEL	0.00	PSTAT PLD Version

VINIT	POTEN	0.00000E+000	F	Initial E (V)
VFINAL	POTEN	2.00000E-001	F	Final E (V)
SCANRATE	QUANT	9.99998E+001	Scan Rate (mV/s)
STEPSIZE	QUANT	2.00000E+000	Step Size (mV)
RPM	QUANT	1000	Rotation Speed (RPM)
IMODE	SELECTOR	1	I/E Range Mode
DISKIRANGE	QUANT	1.00000E+000	Disk Max I (mA)
RINGIRANGE	QUANT	1.00000E+000	Ring Max I (mA)
AREA	QUANT	1.00000E+000	Sample Area (cm^2)
EQDELAY	QUANT	5.00000E+000	Equil. Time (s)
VRING	POTEN	2.00000E-001	F	Ring E (V)
SAMPLINGMODE	SELECTOR	1	Sampling Mode
EOC	QUANT	0	Open Circuit (V)
SEQUENCER	TOGGLE	TRUE	Run as Sequence
PSTATMODEL	IQUANT	64	Pstat Model
PSTATSECTION	LABEL	IFC1010-21185	Pstat Section
PSTATSERIALNO	LABEL	21185	Pstat Serial Number
CTRLMODE	IQUANT	1	Control Mode
ELECTROMETER	IQUANT	0	RE=0 or CS=1
IESTAB	IQUANT	2	I/E Stability
CASPEED	IQUANT	3	Control Amp Speed
CONVENTION	IQUANT	1	Current Convention
ICHRANGE	IQUANT	2	Ich Range
ICHRANGEMODE	TOGGLE	F	Ich Auto Range
ICHOFFSETENABLE	TOGGLE	F	Ich Offset Enable
ICHOFFSET	QUANT	0	Ich Offset (V)
ICHFILTER	IQUANT	3	Ich Filter
VCHRANGE	IQUANT	2	Vch Range
VCHRANGEMODE	TOGGLE	T	Vch Auto Range
VCHOFFSETENABLE	TOGGLE	F	Vch Offset Enable
VCHOFFSET	QUANT	0	Vch Offset (V)
VCHFILTER	IQUANT	3	Vch Filter
IERANGELOWERLIMIT	IQUANT	4	I/E Range Lower Limit
IERANGEMODE	TOGGLE	F	I/E AutoRange
IERANGE	IQUANT	10	I/E Range
ACHSELECT	IQUANT	0	Ach Select
ACHRANGE	IQUANT	2	Ach Range
ACHOFFSETENABLE	TOGGLE	F	Ach Offset Enable
ACHOFFSET	QUANT	0	Ach Offset (V)
ACHFILTER	IQUANT	3	Ach Filter
SENSECABLEID	IQUANT	14	Sense Cable ID
PWRCABLEID	IQUANT	14	Power Cable ID
DCCALDATE	LABEL	11/7/2023	DC Calibration Date
ACCALDATE	LABEL	6/11/2018	AC Calibration Date
FRAMEWORKVERSION	LABEL	7.10.0	Framework Version
INSTRUMENTVERSION	LABEL	4.71	Instrument Version
COMMVERSION	LABEL	3.10	Communications Version
CPUPLDVERSION	LABEL	2.22	CPU PLD Version
CTRLPLDVERSION	LABEL	0.00	CTRL PLD Version
PSTATPLDVERSION	LABEL	0.00	PSTAT PLD Version
CURVE DETECTOR	TABLE	100
	Pt	T	Vf	Im	Vu	Sig	Ach	IERange	Over	Cycle	Temp
	#	s	V vs. Ref.	A	V	V	V	#	bits	#	deg C
	0	0.02	1.99901E-001	-2.21671E-005	0.00000E+000	2.00003E-001	0.00000E+000	10	...........	0	 0.00
	1	0.04	1.99887E-001	-2.78960E-005	0.00000E+000	2.00003E-001	0.00000E+000	10	...........	0	 0.00
	2	0.06	1.99885E-001	-2.90374E-005	0.00000E+000	2.00003E-001	0.00000E+000	10	...........	0	 0.00
	3	0.08	1.99885E-001	-2.93704E-005	0.00000E+000	2.00003E-001	0.00000E+000	10	...........	0	 0.00
	4	0.1	1.99885E-001	-2.93980E-005	0.00000E+000	2.00003E-001	0.00000E+000	10	...........	0	 0.00
	5	0.12	1.99887E-001	-2.92087E-005	0.00000E+000	2.00003E-001	0.00000E+000	10	...........	0	 0.00
	6	0.14	1.99885E-001	-2.96247E-005	0.00000E+000	2.00003E-001	0.00000E+000	10	...........	0	 0.00
	7	0.16	1.99887E-001	-2.96965E-005	0.00000E+000	2.00003E-001	0.00000E+000	10	...........	0	 0.00
	8	0.18	1.99887E-001	-2.97656E-005	0.00000E+000	2.00003E-001	0.00000E+000	10	...........	0	 0.00
	9	0.2	1.99888E-001	-2.95404E-005	0.00000E+000	2.00003E-001	0.00000E+000	10	...........	0	 0.00
	10	0.22	1.99886E-001	-2.98430E-005	0.00000E+000	2.00003E-001	0.00000E+000	10	...........	0	 0.00
	11	0.24	1.99887E-001	-2.96523E-005	0.00000E+000	2.00003E-001	0.00000E+000	10	...........	0	 0.00
	12	0.26	1.99887E-001	-2.95680E-005	0.00000E+000	2.00003E-001	0.00000E+000	10	...........	0	 0.00
	13	0.28	1.99887E-001	-2.98292E-005	0.00000E+000	2.00003E-001	0.00000E+000	10	...........	0	 0.00
	14	0.3	1.99885E-001	-2.97946E-005	0.00000E+000	2.00003E-001	0.00000E+000	10	...........	0	 0.00
	15	0.32	1.99886E-001	-2.94906E-005	0.00000E+000	2.00003E-001	0.00000E+000	10	...........	0	 0.00
	16	0.34	1.99885E-001	-2.97421E-005	0.00000E+000	2.00003E-001	0.00000E+000	10	...........	0	 0.00
	17	0.36	1.99883E-001	-2.96357E-005	0.00000E+000	2.00003E-001	0.00000E+000	10	...........	0	 0.00
	18	0.38	1.99885E-001	-3.00585E-005	0.00000E+000	2.00003E-001	0.00000E+000	10	...........	0	 0.00
	19	0.4	1.99887E-001	-2.96730E-005	0.00000E+000	2.00003E-001	0.00000E+000	10	...........	0	 0.00
	20	0.42	1.99886E-001	-2.99135E-005	0.00000E+000	2.00003E-001	0.00000E+000	10	...........	0	 0.00
	21	0.44	1.99886E-001	-2.99480E-005	0.00000E+000	2.00003E-001	0.00000E+000	10	...........	0	 0.00
	22	0.46	1.99888E-001	-2.98471E-005	0.00000E+000	2.00003E-001	0.00000E+000	10	...........	0	 0.00
	23	0.48	1.99887E-001	-2.94257E-005	0.00000E+000	2.00003E-001	0.00000E+000	10	...........	0	 0.00
	24	0.5	1.99887E-001	-2.97988E-005	0.00000E+000	2.00003E-001	0.00000E+000	10	...........	0	 0.00
	25	0.52	1.99888E-001	-2.98043E-005	0.00000E+000	2.00003E-001	0.00000E+000	10	...........	0	 0.00
	26	0.54	1.99887E-001	-2.99245E-005	0.00000E+000	2.00003E-001	0.00000E+000	10	...........	0	 0.00
	27	0.56	1.99887E-001	-2.97794E-005	0.00000E+000	2.00003E-001	0.00000E+000	10	...........	0	 0.00
	28	0.58	1.99889E-001	-2.97117E-005	0.00000E+000	2.00003E-001	0.00000E+000	10	...........	0	 0.00
	29	0.6	1.99886E-001	-3.01484E-005	0.00000E+000	2.00003E-001	0.00000E+000	10	...........	0	 0.00
	30	0.62	1.99887E-001	-2.98941E-005	0.00000E+000	2.00003E-001	0.00000E+000	10	...........	0	 0.00
	31	0.64	1.99887E-001	-2.97891E-005	0.00000E+000	2.00003E-001	0.00000E+000	10	...........	0	 0.00
	32	0.66	1.99887E-001	-2.97407E-005	0.00000E+000	2.00003E-001	0.00000E+000	10	...........	0	 0.00
	33	0.68	1.99887E-001	-3.00889E-005	0.00000E+000	2.00003E-001	0.00000E+000	10	...........	0	 0.00
	34	0.7	1.99889E-001	-2.99895E-005	0.00000E+000	2.00003E-001	0.00000E+000	10	...........	0	 0.00
	35	0.72	1.99889E-001	-3.01069E-005	0.00000E+000	2.00003E-001	0.00000E+000	10	...........	0	 0.00
	36	0.74	1.99887E-001	-2.99010E-005	0.00000E+000	2.00003E-001	0.00000E+000	10	...........	0	 0.00
	37	0.76	1.99887E-001	-3.00958E-005	0.00000E+000	2.00003E-001	0.00000E+000	10	...........	0	 0.00
	38	0.78	1.99887E-001	-2.98609E-005	0.00000E+000	2.00003E-001	0.00000E+000	10	...........	0	 0.00
	39	0.8	1.99885E-001	-2.99217E-005	0.00000E+000	2.00003E-001	0.00000E+000	10	...........	0	 0.00
	40	0.82	1.99886E-001	-2.99591E-005	0.00000E+000	2.00003E-001	0.00000E+000	10	...........	0	 0.00
	41	0.84	1.99889E-001	-2.99079E-005	0.00000E+000	2.00003E-001	0.00000E+000	10	...........	0	 0.00
	42	0.86	1.99888E-001	-3.03031E-005	0.00000E+000	2.00003E-001	0.00000E+000	10	...........	0	 0.00
	43	0.88	1.99884E-001	-3.00461E-005	0.00000E+000	2.00003E-001	0.00000E+000	10	...........	0	 0.00
	44	0.9	1.99885E-001	-3.02630E-005	0.00000E+000	2.00003E-001	0.00000E+000	10	...........	0	 0.00
	45	0.92	1.99887E-001	-3.01332E-005	0.00000E+000	2.00003E-001	0.00000E+000	10	...........	0	 0.00
	46	0.94	1.99887E-001	-3.00876E-005	0.00000E+000	2.00003E-001	0.00000E+000	10	...........	0	 0.00
	47	0.96	1.99887E-001	-3.00060E-005	0.00000E+000	2.00003E-001	0.00000E+000	10	...........	0	 0.00
	48	0.98	1.99888E-001	-3.02907E-005	0.00000E+000	2.00003E-001	0.00000E+000	10	...........	0	 0.00
	49	1	1.99888E-001	-2.99964E-005	0.00000E+000	2.00003E-001	0.00000E+000	10	...........	0	 0.00
	50	1.02	1.99887E-001	-3.01055E-005	0.00000E+000	2.00003E-001	0.00000E+000	10	...........	0	 0.00
	51	1.04	1.99888E-001	-2.98223E-005	0.00000E+000	2.00003E-001	0.00000E+000	10	...........	0	 0.00
	52	1.06	1.99886E-001	-2.98817E-005	0.00000E+000	2.00003E-001	0.00000E+000	10	...........	0	 0.00
	53	1.08	1.99886E-001	-2.99798E-005	0.00000E+000	2.00003E-001	0.00000E+000	10	...........	0	 0.00
	54	1.1	1.99887E-001	-3.01249E-005	0.00000E+000	2.00003E-001	0.00000E+000	10	...........	0	 0.00
	55	1.12	1.99886E-001	-3.02796E-005	0.00000E+000	2.00003E-001	0.00000E+000	10	...........	0	 0.00
	56	1.14	1.99888E-001	-2.99121E-005	0.00000E+000	2.00003E-001	0.00000E+000	10	...........	0	 0.00
	57	1.16	1.99887E-001	-2.96813E-005	0.00000E+000	2.00003E-001	0.00000E+000	10	...........	0	 0.00
	58	1.18	1.99889E-001	-2.98789E-005	0.00000E+000	2.00003E-001	0.00000E+000	10	...........	0	 0.00
	59	1.2	1.99887E-001	-3.00157E-005	0.00000E+000	2.00003E-001	0.00000E+000	10	...........	0	 0.00
	60	1.22	1.99887E-001	-2.99287E-005	0.00000E+000	2.00003E-001	0.00000E+000	10	...........	0	 0.00
	61	1.24	1.99886E-001	-3.02064E-005	0.00000E+000	2.00003E-001	0.00000E+000	10	...........	0	 0.00
	62	1.26	1.99886E-001	-3.01594E-005	0.00000E+000	2.00003E-001	0.00000E+000	10	...........	0	 0.00
	63	1.28	1.99887E-001	-2.99784E-005	0.00000E+000	2.00003E-001	0.00000E+000	10	...........	0	 0.00
	64	1.3	1.99889E-001	-2.97822E-005	0.00000E+000	2.00003E-001	0.00000E+000	10	...........	0	 0.00
	65	1.32	1.99887E-001	-2.97476E-005	0.00000E+000	2.00003E-001	0.00000E+000	10	...........	0	 0.00
	66	1.34	1.99887E-001	-2.99328E-005	0.00000E+000	2.00003E-001	0.00000E+000	10	...........	0	 0.00
	67	1.36	1.99887E-001	-2.98582E-005	0.00000E+000	2.00003E-001	0.00000E+000	10	...........	0	 0.00
	68	1.38	1.99885E-001	-2.99922E-005	0.00000E+000	2.00003E-001	0.00000E+000	10	...........	0	 0.00
	69	1.4	1.99885E-001	-2.99825E-005	0.00000E+000	2.00003E-001	0.00000E+000	10	...........	0	 0.00
	70	1.42	1.99885E-001	-3.01166E-005	0.00000E+000	2.00003E-001	0.00000E+000	10	...........	0	 0.00
	71	1.44	1.99885E-001	-3.00848E-005	0.00000E+000	2.00003E-001	0.00000E+000	10	...........	0	 0.00
	72	1.46	1.99885E-001	-2.99383E-005	0.00000E+000	2.00003E-001	0.00000E+000	10	...........	0	 0.00
	73	1.48	1.99887E-001	-2.99936E-005	0.00000E+000	2.00003E-001	0.00000E+000	10	...........	0	 0.00
	74	1.5	1.99887E-001	-2.99369E-005	0.00000E+000	2.00003E-001	0.00000E+000	10	...........	0	 0.00
	75	1.52	1.99887E-001	-2.97380E-005	0.00000E+000	2.00003E-001	0.00000E+000	10	...........	0	 0.00
	76	1.54	1.99886E-001	-2.98734E-005	0.00000E+000	2.00003E-001	0.00000E+000	10	...........	0	 0.00
	77	1.56	1.99885E-001	-2.96357E-005	0.00000E+000	2.00003E-001	0.00000E+000	10	...........	0	 0.00
	78	1.58	1.99885E-001	-2.98001E-005	0.00000E+000	2.00003E-001	0.00000E+000	10	...........	0	 0.00
	79	1.6	1.99886E-001	-2.95832E-005	0.00000E+000	2.00003E-001	0.00000E+000	10	...........	0	 0.00
	80	1.62	1.99886E-001	-2.96399E-005	0.00000E+000	2.00003E-001	0.00000E+000	10	...........	0	 0.00
	81	1.64	1.99885E-001	-2.96744E-005	0.00000E+000	2.00003E-001	0.00000E+000	10	...........	0	 0.00
	82	1.66	1.99884E-001	-2.96329E-005	0.00000E+000	2.00003E-001	0.00000E+000	10	...........	0	 0.00
	83	1.68	1.99885E-001	-2.93870E-005	0.00000E+000	2.00003E-001	0.00000E+000	10	...........	0	 0.00
	84	1.7	1.99885E-001	-2.93179E-005	0.00000E+000	2.00003E-001	0.00000E+000	10	...........	0	 0.00
	85	1.72	1.99884E-001	-2.92972E-005	0.00000E+000	2.00003E-001	0.00000E+000	10	...........	0	 0.00
	86	1.74	1.99885E-001	-2.93289E-005	0.00000E+000	2.00003E-001	0.00000E+000	10	...........	0	 0.00
	87	1.76	1.99885E-001	-2.93718E-005	0.00000E+000	2.00003E-001	0.00000E+000	10	...........	0	 0.00
	88	1.78	1.99884E-001	-2.94091E-005	0.00000E+000	2.00003E-001	0.00000E+000	10	...........	0	 0.00
	89	1.8	1.99885E-001	-2.94271E-005	0.00000E+000	2.00003E-001	0.00000E+000	10	...........	0	 0.00
	90	1.82	1.99887E-001	-2.94353E-005	0.00000E+000	2.00003E-001	0.00000E+000	10	...........	0	 0.00
	91	1.84	1.99889E-001	-2.94353E-005	0.00000E+000	2.00003E-001	0.00000E+000	10	...........	0	 0.00
	92	1.86	1.99887E-001	-2.93096E-005	0.00000E+000	2.00003E-001	0.00000E+000	10	...........	0	 0.00
	93	1.88	1.99887E-001	-2.90291E-005	0.00000E+000	2.00003E-001	0.00000E+000	10	...........	0	 0.00
	94	1.9	1.99886E-001	-2.93842E-005	0.00000E+000	2.00003E-001	0.00000E+000	10	...........	0	 0.00
	95	1.92	1.99887E-001	-2.95362E-005	0.00000E+000	2.00003E-001	0.00000E+000	10	...........	0	 0.00
	96	1.94	1.99886E-001	-2.94934E-005	0.00000E+000	2.00003E-001	0.00000E+000	10	...........	0	 0.00
	97	1.96	1.99887E-001	-2.91092E-005	0.00000E+000	2.00003E-001	0.00000E+000	10	...........	0	 0.00
	98	1.98	1.99888E-001	-2.91300E-005	0.00000E+000	2.00003E-001	0.00000E+000	10	...........	0	 0.00
	99	2	1.99887E-001	-2.95901E-005	0.00000E+000	2.00003E-001	0.00000E+000	10	...........	0	 0.00
CURVE GENERATOR	TABLE	101
	Pt	T	Vf	Im	Vu	Sig	Ach	IERange	Over	Cycle	Temp
	#	s	V vs. Ref.	A	V	V	V	#	bits	#	deg C
	0	0.02	2.19856E-004	-6.19645E-005	0.00000E+000	4.75347E-006	0.00000E+000	10	...........	0	1488.88
	1	0.04	2.18105E-003	-3.11329E-005	0.00000E+000	2.00427E-003	0.00000E+000	10	...........	0	1488.88
	2	0.06	4.17325E-003	-1.46322E-005	0.00000E+000	4.00380E-003	0.00000E+000	10	...........	0	1488.88
	3	0.08	6.17353E-003	-2.58466E-006	0.00000E+000	6.00333E-003	0.00000E+000	10	...........	0	1488.88
	4	0.1	8.17385E-003	8.89060E-006	0.00000E+000	8.00285E-003	0.00000E+000	10	...........	0	1488.88
	5	0.12	1.01748E-002	1.81947E-005	0.00000E+000	1.00024E-002	0.00000E+000	10	...........	0	1488.88
	6	0.14	1.21744E-002	2.51142E-005	0.00000E+000	1.20019E-002	0.00000E+000	10	...........	0	1488.88
	7	0.16	1.41746E-002	3.21141E-005	0.00000E+000	1.40014E-002	0.00000E+000	10	...........	0	1488.88
	8	0.18	1.61736E-002	3.90267E-005	0.00000E+000	1.60010E-002	0.00000E+000	10	...........	0	1488.88
	9	0.2	1.81695E-002	4.50151E-005	0.00000E+000	1.80005E-002	0.00000E+000	10	...........	0	1488.88
	10	0.22	2.01725E-002	5.12099E-005	0.00000E+000	2.00000E-002	0.00000E+000	10	...........	0	1488.88
	11	0.24	2.21724E-002	5.74962E-005	0.00000E+000	2.19995E-002	0.00000E+000	10	...........	0	1488.88
	12	0.26	2.41723E-002	6.34084E-005	0.00000E+000	2.39991E-002	0.00000E+000	10	...........	0	1488.88
	13	0.28	2.61708E-002	6.83023E-005	0.00000E+000	2.59986E-002	0.00000E+000	10	...........	0	1488.88
	14	0.3	2.81714E-002	7.38418E-005	0.00000E+000	2.79981E-002	0.00000E+000	10	...........	0	1488.88
	15	0.32	3.01709E-002	7.98717E-005	0.00000E+000	2.99976E-002	0.00000E+000	10	...........	0	1488.88
	16	0.34	3.21771E-002	8.47115E-005	0.00000E+000	3.19972E-002	0.00000E+000	10	...........	0	1488.88
	17	0.36	3.41763E-002	9.00321E-005	0.00000E+000	3.39967E-002	0.00000E+000	10	...........	0	1488.88
	18	0.38	3.61747E-002	9.43357E-005	0.00000E+000	3.59962E-002	0.00000E+000	10	...........	0	1488.88
	19	0.4	3.81767E-002	1.00037E-004	0.00000E+000	3.79957E-002	0.00000E+000	10	...........	0	1488.88
	20	0.42	4.01776E-002	1.04935E-004	0.00000E+000	3.99953E-002	0.00000E+000	10	...........	0	1488.88
	21	0.44	4.21731E-002	1.10455E-004	0.00000E+000	4.19948E-002	0.00000E+000	10	...........	0	1488.88
	22	0.46	4.41740E-002	1.15644E-004	0.00000E+000	4.39943E-002	0.00000E+000	10	...........	0	1488.88
	23	0.48	4.61709E-002	1.21461E-004	0.00000E+000	4.59938E-002	0.00000E+000	10	...........	0	1488.88
	24	0.5	4.81829E-002	1.25734E-004	0.00000E+000	4.80059E-002	0.00000E+000	10	...........	0	1488.88
	25	0.52	5.01824E-002	1.31059E-004	0.00000E+000	5.00054E-002	0.00000E+000	10	...........	0	1488.88
	26	0.54	5.21817E-002	1.35940E-004	0.00000E+000	5.20049E-002	0.00000E+000	10	...........	0	1488.88
	27	0.56	5.41840E-002	1.41039E-004	0.00000E+000	5.40044E-002	0.00000E+000	10	...........	0	1488.88
	28	0.58	5.61778E-002	1.46438E-004	0.00000E+000	5.60040E-002	0.00000E+000	10	...........	0	1488.88
	29	0.6	5.81776E-002	1.51142E-004	0.00000E+000	5.80035E-002	0.00000E+000	10	...........	0	1488.88
	30	0.62	6.01798E-002	1.56872E-004	0.00000E+000	6.00030E-002	0.00000E+000	10	...........	0	1488.88
	31	0.64	6.21779E-002	1.62194E-004	0.00000E+000	6.20025E-002	0.00000E+000	10	...........	0	1488.88
	32	0.66	6.41786E-002	1.67595E-004	0.00000E+000	6.40021E-002	0.00000E+000	10	...........	0	1488.88
	33	0.68	6.61777E-002	1.71984E-004	0.00000E+000	6.60016E-002	0.00000E+000	10	...........	0	1488.88
	34	0.7	6.81760E-002	1.77219E-004	0.00000E+000	6.80011E-002	0.00000E+000	10	...........	0	1488.88
	35	0.72	7.01765E-002	1.82325E-004	0.00000E+000	7.00006E-002	0.00000E+000	10	...........	0	1488.88
	36	0.74	7.21791E-002	1.87672E-004	0.00000E+000	7.20002E-002	0.00000E+000	10	...........	0	1488.88
	37	0.76	7.41740E-002	1.92888E-004	0.00000E+000	7.39997E-002	0.00000E+000	10	...........	0	1488.88
	38	0.78	7.61753E-002	1.98394E-004	0.00000E+000	7.59992E-002	0.00000E+000	10	...........	0	1488.88
	39	0.8	7.81729E-002	2.02878E-004	0.00000E+000	7.79987E-002	0.00000E+000	10	...........	0	1488.88
	40	0.82	8.01727E-002	2.08231E-004	0.00000E+000	7.99983E-002	0.00000E+000	10	...........	0	1488.88
	41	0.84	8.21749E-002	2.13949E-004	0.00000E+000	8.19978E-002	0.00000E+000	10	...........	0	1488.88
	42	0.86	8.41700E-002	2.17953E-004	0.00000E+000	8.39973E-002	0.00000E+000	10	...........	0	1488.88
	43	0.88	8.61673E-002	2.23655E-004	0.00000E+000	8.59969E-002	0.00000E+000	10	...........	0	1488.88
	44	0.9	8.81689E-002	2.28445E-004	0.00000E+000	8.79964E-002	0.00000E+000	10	...........	0	1488.88
	45	0.92	9.01715E-002	2.33897E-004	0.00000E+000	8.99959E-002	0.00000E+000	10	...........	0	1488.88
	46	0.94	9.21666E-002	2.39240E-004	0.00000E+000	9.19954E-002	0.00000E+000	10	...........	0	1488.88
	47	0.96	9.41670E-002	2.44111E-004	0.00000E+000	9.39950E-002	0.00000E+000	10	...........	0	1488.88
	48	0.98	9.61671E-002	2.48610E-004	0.00000E+000	9.59945E-002	0.00000E+000	10	...........	0	1488.88
	49	1	9.81681E-002	2.54015E-004	0.00000E+000	9.79940E-002	0.00000E+000	10	...........	0	1488.88
	50	1.02	1.00180E-001	2.59181E-004	0.00000E+000	1.00006E-001	0.00000E+000	10	...........	0	1488.88
	51	1.04	1.02183E-001	2.64780E-004	0.00000E+000	1.02006E-001	0.00000E+000	10	...........	0	1488.88
	52	1.06	1.04184E-001	2.69118E-004	0.00000E+000	1.04005E-001	0.00000E+000	10	...........	0	1488.88
	53	1.08	1.06179E-001	2.74089E-004	0.00000E+000	1.06005E-001	0.00000E+000	10	...........	0	1488.88
	54	1.1	1.08176E-001	2.78572E-004	0.00000E+000	1.08004E-001	0.00000E+000	10	...........	0	1488.88
	55	1.12	1.10177E-001	2.83391E-004	0.00000E+000	1.10004E-001	0.00000E+000	10	...........	0	1488.88
	56	1.14	1.12174E-001	2.88568E-004	0.00000E+000	1.12003E-001	0.00000E+000	10	...........	0	1488.88
	57	1.16	1.14176E-001	2.93633E-004	0.00000E+000	1.14003E-001	0.00000E+000	10	...........	0	1488.88
	58	1.18	1.16176E-001	2.98003E-004	0.00000E+000	1.16002E-001	0.00000E+000	10	...........	0	1488.69
	59	1.2	1.18173E-001	3.02413E-004	0.00000E+000	1.18002E-001	0.00000E+000	10	...........	0	1488.69
	60	1.22	1.20173E-001	3.07494E-004	0.00000E+000	1.20001E-001	0.00000E+000	10	...........	0	1488.69
	61	1.24	1.22173E-001	3.12219E-004	0.00000E+000	1.22001E-001	0.00000E+000	10	...........	0	1488.69
	62	1.26	1.24171E-001	3.16636E-004	0.00000E+000	1.24000E-001	0.00000E+000	10	...........	0	1488.69
	63	1.28	1.26168E-001	3.20927E-004	0.00000E+000	1.26000E-001	0.00000E+000	10	...........	0	1488.69
	64	1.3	1.28172E-001	3.26030E-004	0.00000E+000	1.27999E-001	0.00000E+000	10	...........	0	1488.69
	65	1.32	1.30168E-001	3.30638E-004	0.00000E+000	1.29999E-001	0.00000E+000	10	...........	0	1488.69
	66	1.34	1.32167E-001	3.34978E-004	0.00000E+000	1.31998E-001	0.00000E+000	10	...........	0	1488.69
	67	1.36	1.34170E-001	3.39351E-004	0.00000E+000	1.33998E-001	0.00000E+000	10	...........	0	1488.69
	68	1.38	1.36172E-001	3.43689E-004	0.00000E+000	1.35997E-001	0.00000E+000	10	...........	0	1488.69
	69	1.4	1.38165E-001	3.48091E-004	0.00000E+000	1.37997E-001	0.00000E+000	10	...........	0	1488.69
	70	1.42	1.40169E-001	3.52048E-004	0.00000E+000	1.39997E-001	0.00000E+000	10	...........	0	1488.69
	71	1.44	1.42167E-001	3.56409E-004	0.00000E+000	1.41996E-001	0.00000E+000	10	...........	0	1488.69
	72	1.46	1.44166E-001	3.61599E-004	0.00000E+000	1.43996E-001	0.00000E+000	10	...........	0	1488.69
	73	1.48	1.46167E-001	3.65686E-004	0.00000E+000	1.45995E-001	0.00000E+000	10	...........	0	1488.69
	74	1.5	1.48166E-001	3.69496E-004	0.00000E+000	1.47995E-001	0.00000E+000	10	...........	0	1488.69
	75	1.52	1.50166E-001	3.74231E-004	0.00000E+000	1.49994E-001	0.00000E+000	10	...........	0	1488.69
	76	1.54	1.52159E-001	3.77788E-004	0.00000E+000	1.51994E-001	0.00000E+000	10	...........	0	1488.69
	77	1.56	1.54173E-001	3.82945E-004	0.00000E+000	1.54006E-001	0.00000E+000	10	...........	0	1488.69
	78	1.58	1.56171E-001	3.86872E-004	0.00000E+000	1.56005E-001	0.00000E+000	10	...........	0	1488.69
	79	1.6	1.58168E-001	3.91459E-004	0.00000E+000	1.58005E-001	0.00000E+000	10	...........	0	1488.69
	80	1.62	1.60167E-001	3.94539E-004	0.00000E+000	1.60004E-001	0.00000E+000	10	...........	0	1488.69
	81	1.64	1.62171E-001	3.99130E-004	0.00000E+000	1.62004E-001	0.00000E+000	10	...........	0	1488.69
	82	1.66	1.64167E-001	4.02702E-004	0.00000E+000	1.64003E-001	0.00000E+000	10	...........	0	1488.69
	83	1.68	1.66168E-001	4.07399E-004	0.00000E+000	1.66003E-001	0.00000E+000	10	...........	0	1488.69
	84	1.7	1.68167E-001	4.11330E-004	0.00000E+000	1.68002E-001	0.00000E+000	10	...........	0	1488.69
	85	1.72	1.70164E-001	4.15701E-004	0.00000E+000	1.70002E-001	0.00000E+000	10	...........	0	1488.69
	86	1.74	1.72168E-001	4.19496E-004	0.00000E+000	1.72001E-001	0.00000E+000	10	...........	0	1488.69
	87	1.76	1.74164E-001	4.22950E-004	0.00000E+000	1.74001E-001	0.00000E+000	10	...........	0	1488.69
	88	1.78	1.76164E-001	4.26756E-004	0.00000E+000	1.76001E-001	0.00000E+000	10	...........	0	1488.69
	89	1.8	1.78163E-001	4.31255E-004	0.00000E+000	1.78000E-001	0.00000E+000	10	...........	0	1488.69
	90	1.82	1.80162E-001	4.34430E-004	0.00000E+000	1.80000E-001	0.00000E+000	10	...........	0	1488.69
	91	1.84	1.82161E-001	4.38722E-004	0.00000E+000	1.81999E-001	0.00000E+000	10	...........	0	1488.69
	92	1.86	1.84157E-001	4.42251E-004	0.00000E+000	1.83999E-001	0.00000E+000	10	...........	0	1488.69
	93	1.88	1.86160E-001	4.46574E-004	0.00000E+000	1.85998E-001	0.00000E+000	10	...........	0	1488.69
	94	1.9	1.88158E-001	4.49854E-004	0.00000E+000	1.87998E-001	0.00000E+000	10	...........	0	1488.69
	95	1.92	1.90158E-001	4.53927E-004	0.00000E+000	1.89997E-001	0.00000E+000	10	...........	0	1488.69
	96	1.94	1.92156E-001	4.57413E-004	0.00000E+000	1.91997E-001	0.00000E+000	10	...........	0	1488.69
	97	1.96	1.94158E-001	4.62001E-004	0.00000E+000	1.93996E-001	0.00000E+000	10	...........	0	1488.69
	98	1.98	1.96160E-001	4.66216E-004	0.00000E+000	1.95996E-001	0.00000E+000	10	...........	0	1488.69
	99	2	1.98158E-001	4.68286E-004	0.00000E+000	1.97995E-001	0.00000E+000	10	...........	0	1488.69
	100	2.02	2.00157E-001	4.73446E-004	0.00000E+000	1.99995E-001	0.00000E+000	10	...........	0	1488.69
