EXPLAIN
TAG	CORPOT
TITLE	LABEL	Calibration of reference electrode	Test Identifier
DATE	LABEL	14.8.2025	Date
TIME	LABEL	9:40:00	Time
NOTES	NOTES	1	Notes...
	
NOMAD
METHOD	OCP
NICK	 LABEL	
SAMPLEID	 LABEL	CE-NOME_MaGu_250814_0001
ENVIRONMENTID	 LABEL	CE-NOME_MaGu_0030
ECSETUPID	 LABEL	CE-NOME_MaGu_0035
AIRTEMPERATURE	 LABEL	25
AIRPRESSURE	 LABEL	1000
AIRHUMIDITY	 LABEL	50
PSTAT	PSTAT	Sparks-39034	Potentiostat
TIMEOUT	QUANT	6,00000E+002	Total Time (s)
SAMPLETIME	QUANT	1,00000E+000	Sample Period (s)
STABILITY	QUANT	0,00000E+000	Stability (mV/s)
AREA	QUANT	1,00000E+000	Sample Area (cm^2)
SEQUENCER	TOGGLE	TRUE	Run as Sequence

PSTATMODEL	IQUANT	7	Pstat Model
PSTATSECTION	LABEL	REF600P-39034	Pstat Section
PSTATSERIALNO	LABEL	39034	Pstat Serial Number
CTRLMODE	IQUANT	1	Control Mode
ELECTROMETER	IQUANT	0	RE=0 or CS=1
IESTAB	IQUANT	2	I/E Stability
CASPEED	IQUANT	3	Control Amp Speed
CONVENTION	IQUANT	1	Current Convention
ICHRANGE	IQUANT	2	Ich Range
ICHRANGEMODE	TOGGLE	T	Ich Auto Range
ICHOFFSETENABLE	TOGGLE	F	Ich Offset Enable
ICHOFFSET	QUANT	0	Ich Offset (V)
ICHFILTER	IQUANT	3	Ich Filter
VCHRANGE	IQUANT	2	Vch Range
VCHRANGEMODE	TOGGLE	T	Vch Auto Range
VCHOFFSETENABLE	TOGGLE	F	Vch Offset Enable
VCHOFFSET	QUANT	0	Vch Offset (V)
VCHFILTER	IQUANT	3	Vch Filter
ACHRANGE	IQUANT	2	Ach Range
ACHOFFSETENABLE	TOGGLE	F	Ach Offset Enable
ACHOFFSET	QUANT	0	Ach Offset (V)
ACHFILTER	IQUANT	3	Ach Filter
IERANGELOWERLIMIT	IQUANT	1	I/E Range Lower Limit
IERANGEMODE	TOGGLE	F	I/E AutoRange
IERANGE	IQUANT	10	I/E Range
POSFEEDENABLE	TOGGLE	F	Positive Feedback IR Comp
POSFEEDRESISTANCE	QUANT	0	Positive Feedback Resistance (ohm)
ACHSELECT	IQUANT	0	Ach Select
SENSECABLEID	IQUANT	7	Sense Cable ID
PWRCABLEID	IQUANT	7	Power Cable ID
DCCALDATE	LABEL	5/20/2025	DC Calibration Date
ACCALDATE	LABEL	5/20/2025	AC Calibration Date
THERMOSELECT	IQUANT	1	Thermo Select
FRAMEWORKVERSION	LABEL	7.10.3	Framework Version
INSTRUMENTVERSION	LABEL	4.91	Instrument Version
COMMVERSION	LABEL	5.10	Communications Version
CPUPLDVERSION	LABEL	6.00	CPU PLD Version
CTRLPLDVERSION	LABEL	3.21	CTRL PLD Version
PSTATPLDVERSION	LABEL	0.00	PSTAT PLD Version
CURVE	TABLE	594
	Pt	T	Vf	Vm	Ach	Over	Temp
	#	s	V vs. Ref.	V	V	bits	deg C
	0	1,01	9,18435E-001	9,18435E-001	-2,60091E-004	...........	-327,62
	1	2,02	9,18435E-001	9,18435E-001	-3,70158E-004	...........	-327,62
	2	3,03	9,18435E-001	9,18431E-001	-2,51975E-004	...........	-327,62
	3	4,04	9,18435E-001	9,18464E-001	-3,69558E-004	...........	-327,62
	4	5,05	9,18438E-001	9,18459E-001	-2,56808E-004	...........	-327,62
	5	6,06	9,18443E-001	9,18471E-001	-3,63408E-004	...........	-327,62
	6	7,07	9,18451E-001	9,18451E-001	-2,57725E-004	...........	-327,62
	7	8,08	9,18458E-001	9,18463E-001	-3,67725E-004	...........	-327,62
	8	9,09	9,18461E-001	9,18471E-001	-2,55541E-004	...........	-327,62
	9	10,1	9,18462E-001	9,18451E-001	-3,63675E-004	...........	-327,62
	10	11,11	9,18463E-001	9,18478E-001	-2,52658E-004	...........	-327,62
	11	12,12	9,18463E-001	9,18460E-001	-3,62958E-004	...........	-327,62
	12	13,13	9,18465E-001	9,18477E-001	-2,53208E-004	...........	-327,62
	13	14,14	9,18466E-001	9,18474E-001	-3,61325E-004	...........	-327,62
	14	15,15	9,18469E-001	9,18482E-001	-2,58108E-004	...........	-327,62
	15	16,16	9,18473E-001	9,18509E-001	-3,58708E-004	...........	-327,62
	16	17,17	9,18479E-001	9,18507E-001	-2,50991E-004	...........	-327,62
	17	18,18	9,18488E-001	9,18521E-001	-3,62191E-004	...........	-327,62
	18	19,19	9,18498E-001	9,18516E-001	-2,55058E-004	...........	-327,62
	19	20,2	9,18507E-001	9,18516E-001	-3,59375E-004	...........	-327,62
	20	21,21	9,18513E-001	9,18510E-001	-2,50708E-004	...........	-327,62
	21	22,22	9,18515E-001	9,18503E-001	-4,64225E-004	...........	-327,62
	22	23,23	9,18514E-001	9,18510E-001	-5,17775E-004	...........	-327,62
	23	24,24	9,18512E-001	9,18520E-001	-5,21225E-004	...........	-327,62
	24	25,25	9,18510E-001	9,18516E-001	-5,17991E-004	...........	-327,62
	25	26,26	9,18512E-001	9,18508E-001	-5,13091E-004	...........	-327,62
	26	27,27	9,18513E-001	9,18514E-001	-5,11658E-004	...........	-327,62
	27	28,28	9,18513E-001	9,18504E-001	-5,15625E-004	...........	-327,62
	28	29,29	9,18512E-001	9,18518E-001	-5,18841E-004	...........	-327,62
	29	30,3	9,18512E-001	9,18511E-001	-5,16441E-004	...........	-327,62
	30	31,31	9,18511E-001	9,18511E-001	-5,13991E-004	...........	-327,62
	31	32,32	9,18512E-001	9,18523E-001	-5,12008E-004	...........	-327,62
	32	33,33	9,18513E-001	9,18520E-001	-5,14425E-004	...........	-327,62
	33	34,34	9,18516E-001	9,18534E-001	-5,09591E-004	...........	-327,62
	34	35,35	9,18519E-001	9,18514E-001	-5,12941E-004	...........	-327,62
	35	36,36	9,18522E-001	9,18532E-001	-5,11158E-004	...........	-327,62
	36	37,37	9,18524E-001	9,18524E-001	-5,09558E-004	...........	-327,62
	37	38,38	9,18525E-001	9,18540E-001	-5,13658E-004	...........	-327,62
	38	39,39	9,18527E-001	9,18540E-001	-5,09608E-004	...........	-327,62
	39	40,4	9,18530E-001	9,18523E-001	-5,08458E-004	...........	-327,62
	40	41,41	9,18533E-001	9,18533E-001	-5,07358E-004	...........	-327,62
	41	42,42	9,18533E-001	9,18533E-001	-5,09641E-004	...........	-327,62
	42	43,43	9,18533E-001	9,18538E-001	-5,14325E-004	...........	-327,62
	43	44,44	9,18533E-001	9,18541E-001	-5,07791E-004	...........	-327,62
	44	45,45	9,18534E-001	9,18526E-001	-5,08808E-004	...........	-327,62
	45	46,46	9,18535E-001	9,18522E-001	-5,12008E-004	...........	-327,62
	46	47,47	9,18533E-001	9,18519E-001	-5,06858E-004	...........	-327,62
	47	48,48	9,18529E-001	9,18514E-001	-5,06941E-004	...........	-327,62
	48	49,49	9,18524E-001	9,18510E-001	-5,05608E-004	...........	-327,62
	49	50,5	9,18519E-001	9,18503E-001	-5,02291E-004	...........	-327,62
	50	51,51	9,18515E-001	9,18508E-001	-5,04541E-004	...........	-327,62
	51	52,52	9,18511E-001	9,18514E-001	-5,04608E-004	...........	-327,62
	52	53,53	9,18509E-001	9,18523E-001	-5,05991E-004	...........	-327,62
	53	54,54	9,18511E-001	9,18524E-001	-5,05241E-004	...........	-327,62
	54	55,55	9,18514E-001	9,18518E-001	-5,13125E-004	...........	-327,62
	55	56,56	9,18518E-001	9,18508E-001	-5,11725E-004	...........	-327,62
	56	57,57	9,18519E-001	9,18518E-001	-5,06008E-004	...........	-327,62
	57	58,58	9,18518E-001	9,18514E-001	-5,05641E-004	...........	-327,62
	58	59,59	9,18516E-001	9,18517E-001	-5,09991E-004	...........	-327,62
	59	60,6	9,18515E-001	9,18504E-001	-5,07891E-004	...........	-327,62
	60	61,61	9,18514E-001	9,18497E-001	-5,06958E-004	...........	-327,62
	61	62,62	9,18511E-001	9,18498E-001	-5,00425E-004	...........	-327,62
	62	63,63	9,18506E-001	9,18499E-001	-4,98775E-004	...........	-327,62
	63	64,64	9,18502E-001	9,18486E-001	-5,04908E-004	...........	-327,62
	64	65,65	9,18498E-001	9,18472E-001	-5,04025E-004	...........	-327,62
	65	66,66	9,18493E-001	9,18483E-001	-5,00025E-004	...........	-327,62
	66	67,67	9,18487E-001	9,18477E-001	-4,95075E-004	...........	-327,62
	67	68,68	9,18482E-001	9,18475E-001	-4,92258E-004	...........	-327,62
	68	69,69	9,18479E-001	9,18484E-001	-5,01475E-004	...........	-327,62
	69	70,7	9,18478E-001	9,18474E-001	-4,99725E-004	...........	-327,62
	70	71,71	9,18478E-001	9,18476E-001	-5,04525E-004	...........	-327,62
	71	72,72	9,18478E-001	9,18476E-001	-4,99308E-004	...........	-327,62
	72	73,73	9,18477E-001	9,18476E-001	-4,95591E-004	...........	-327,62
	73	74,74	9,18476E-001	9,18469E-001	-4,97091E-004	...........	-327,62
	74	75,75	9,18475E-001	9,18465E-001	-4,97808E-004	...........	-327,62
	75	76,76	9,18473E-001	9,18448E-001	-4,91408E-004	...........	-327,62
	76	77,77	9,18468E-001	9,18449E-001	-4,91691E-004	...........	-327,62
	77	78,78	9,18462E-001	9,18454E-001	-5,02291E-004	...........	-327,62
	78	79,79	9,18456E-001	9,18452E-001	-5,00958E-004	...........	-327,62
	79	80,8	9,18453E-001	9,18452E-001	-4,98608E-004	...........	-327,62
	80	81,81	9,18452E-001	9,18453E-001	-4,95291E-004	...........	-327,62
	81	82,82	9,18452E-001	9,18451E-001	-4,96108E-004	...........	-327,62
	82	83,83	9,18452E-001	9,18442E-001	-4,96308E-004	...........	-327,62
	83	84,84	9,18451E-001	9,18425E-001	-4,93591E-004	...........	-327,62
	84	85,85	9,18447E-001	9,18444E-001	-4,93975E-004	...........	-327,62
	85	86,86	9,18442E-001	9,18401E-001	-4,90358E-004	...........	-327,62
	86	87,87	9,18435E-001	9,18419E-001	-4,93141E-004	...........	-327,62
	87	88,88	9,18428E-001	9,18432E-001	-4,92791E-004	...........	-327,62
	88	89,89	9,18423E-001	9,18433E-001	-4,96508E-004	...........	-327,62
	89	90,9	9,18423E-001	9,18438E-001	-4,98175E-004	...........	-327,62
	90	91,91	9,18426E-001	9,18419E-001	-4,93808E-004	...........	-327,62
	91	92,92	9,18430E-001	9,18426E-001	-4,93708E-004	...........	-327,62
	92	93,93	9,18430E-001	9,18422E-001	-4,96658E-004	...........	-327,62
	93	94,94	9,18427E-001	9,18406E-001	-4,97175E-004	...........	-327,62
	94	95,95	9,18423E-001	9,18410E-001	-4,86675E-004	...........	-327,62
	95	96,96	9,18419E-001	9,18415E-001	-4,95141E-004	...........	-327,62
	96	97,97	9,18414E-001	9,18404E-001	-4,90341E-004	...........	-327,62
	97	98,98	9,18411E-001	9,18397E-001	-4,96208E-004	...........	-327,62
	98	99,99	9,18408E-001	9,18400E-001	-4,93358E-004	...........	-327,62
	99	101	9,18405E-001	9,18387E-001	-4,84375E-004	...........	-327,62
	100	102,01	9,18401E-001	9,18388E-001	-4,93841E-004	...........	-327,62
	101	103,02	9,18396E-001	9,18386E-001	-4,87908E-004	...........	-327,62
	102	104,03	9,18391E-001	9,18354E-001	-4,90525E-004	...........	-327,62
	103	105,04	9,18385E-001	9,18358E-001	-4,85491E-004	...........	-327,62
	104	106,05	9,18376E-001	9,18332E-001	-4,92408E-004	...........	-327,62
	105	107,06	9,18365E-001	9,18339E-001	-4,92375E-004	...........	-327,62
	106	108,07	9,18353E-001	9,18320E-001	-4,89591E-004	...........	-327,62
	107	109,08	9,18343E-001	9,18321E-001	-4,90208E-004	...........	-327,62
	108	110,09	9,18334E-001	9,18325E-001	-4,91541E-004	...........	-327,62
	109	111,1	9,18328E-001	9,18315E-001	-4,95558E-004	...........	-327,62
	110	112,11	9,18324E-001	9,18315E-001	-4,88375E-004	...........	-327,62
	111	113,12	9,18320E-001	9,18298E-001	-4,88075E-004	...........	-327,62
	112	114,13	9,18316E-001	9,18296E-001	-4,87775E-004	...........	-327,62
	113	115,14	9,18310E-001	9,18290E-001	-4,87808E-004	...........	-327,62
	114	116,15	9,18303E-001	9,18280E-001	-4,87575E-004	...........	-327,62
	115	117,16	9,18296E-001	9,18264E-001	-4,85841E-004	...........	-327,62
	116	118,17	9,18288E-001	9,18263E-001	-4,84075E-004	...........	-327,62
	117	119,18	9,18279E-001	9,18262E-001	-4,87891E-004	...........	-327,62
	118	120,19	9,18271E-001	9,18245E-001	-4,89741E-004	...........	-327,62
	119	121,2	9,18264E-001	9,18245E-001	-4,88991E-004	...........	-327,62
	120	122,21	9,18257E-001	9,18225E-001	-4,94591E-004	...........	-327,62
	121	123,22	9,18249E-001	9,18217E-001	-4,91291E-004	...........	-327,62
	122	124,23	9,18240E-001	9,18217E-001	-4,93125E-004	...........	-327,62
	123	125,24	9,18230E-001	9,18210E-001	-4,91941E-004	...........	-327,62
	124	126,25	9,18222E-001	9,18212E-001	-4,93758E-004	...........	-327,62
	125	127,26	9,18217E-001	9,18203E-001	-4,91275E-004	...........	-327,62
	126	128,27	9,18212E-001	9,18197E-001	-4,90108E-004	...........	-327,62
	127	129,28	9,18208E-001	9,18187E-001	-4,89158E-004	...........	-327,62
	128	130,29	9,18203E-001	9,18179E-001	-4,90091E-004	...........	-327,62
	129	131,3	9,18196E-001	9,18169E-001	-4,85625E-004	...........	-327,62
	130	132,31	9,18188E-001	9,18158E-001	-4,84725E-004	...........	-327,62
	131	133,32	9,18179E-001	9,18153E-001	-4,87041E-004	...........	-327,62
	132	134,33	9,18170E-001	9,18144E-001	-4,87491E-004	...........	-327,62
	133	135,34	9,18161E-001	9,18140E-001	-4,84358E-004	...........	-327,62
	134	136,35	9,18153E-001	9,18136E-001	-4,91641E-004	...........	-327,62
	135	137,36	9,18146E-001	9,18125E-001	-4,85725E-004	...........	-327,62
	136	138,37	9,18140E-001	9,18117E-001	-4,85925E-004	...........	-327,62
	137	139,38	9,18133E-001	9,18112E-001	-4,83225E-004	...........	-327,62
	138	140,39	9,18126E-001	9,18101E-001	-4,90741E-004	...........	-327,62
	139	141,4	9,18119E-001	9,18095E-001	-4,86175E-004	...........	-327,62
	140	142,41	9,18111E-001	9,18089E-001	-4,87191E-004	...........	-327,62
	141	143,42	9,18103E-001	9,18087E-001	-4,92525E-004	...........	-327,62
	142	144,43	9,18097E-001	9,18081E-001	-4,92141E-004	...........	-327,62
	143	145,44	9,18091E-001	9,18067E-001	-4,90141E-004	...........	-327,62
	144	146,45	9,18085E-001	9,18065E-001	-4,89708E-004	...........	-327,62
	145	147,46	9,18079E-001	9,18056E-001	-4,92725E-004	...........	-327,62
	146	148,47	9,18072E-001	9,18059E-001	-4,84658E-004	...........	-327,62
	147	149,48	9,18065E-001	9,18056E-001	-4,90991E-004	...........	-327,62
	148	150,49	9,18061E-001	9,18041E-001	-4,92241E-004	...........	-327,62
	149	151,5	9,18057E-001	9,18045E-001	-4,95491E-004	...........	-327,62
	150	152,51	9,18052E-001	9,18034E-001	-4,91441E-004	...........	-327,62
	151	153,52	9,18047E-001	9,18037E-001	-4,94641E-004	...........	-327,62
	152	154,53	9,18043E-001	9,18032E-001	-4,94091E-004	...........	-327,62
	153	155,54	9,18039E-001	9,18028E-001	-4,97841E-004	...........	-327,62
	154	156,55	9,18035E-001	9,18022E-001	-4,91125E-004	...........	-327,62
	155	157,56	9,18032E-001	9,18017E-001	-4,90891E-004	...........	-327,62
	156	158,57	9,18027E-001	9,18012E-001	-4,82975E-004	...........	-327,62
	157	159,58	9,18023E-001	9,18008E-001	-4,85525E-004	...........	-327,62
	158	160,59	9,18018E-001	9,18005E-001	-4,80108E-004	...........	-327,62
	159	161,6	9,18013E-001	9,17987E-001	-4,87425E-004	...........	-327,62
	160	162,61	9,18008E-001	9,17995E-001	-4,81775E-004	...........	-327,62
	161	163,62	9,18002E-001	9,17985E-001	-4,84991E-004	...........	-327,62
	162	164,63	9,17996E-001	9,17983E-001	-4,84858E-004	...........	-327,62
	163	165,64	9,17991E-001	9,17978E-001	-4,89041E-004	...........	-327,62
	164	166,65	9,17987E-001	9,17966E-001	-4,82341E-004	...........	-327,62
	165	167,66	9,17982E-001	9,17963E-001	-4,83358E-004	...........	-327,62
	166	168,67	9,17976E-001	9,17958E-001	-4,78408E-004	...........	-327,62
	167	169,68	9,17970E-001	9,17962E-001	-4,84208E-004	...........	-327,62
	168	170,69	9,17965E-001	9,17959E-001	-4,81625E-004	...........	-327,62
	169	171,7	9,17962E-001	9,17943E-001	-4,78358E-004	...........	-327,62
	170	172,71	9,17958E-001	9,17944E-001	-4,83908E-004	...........	-327,62
	171	173,72	9,17954E-001	9,17935E-001	-4,79125E-004	...........	-327,62
	172	174,73	9,17949E-001	9,17929E-001	-4,82175E-004	...........	-327,62
	173	175,74	9,17942E-001	9,17921E-001	-4,81341E-004	...........	-327,62
	174	176,75	9,17936E-001	9,17909E-001	-4,83291E-004	...........	-327,62
	175	177,76	9,17928E-001	9,17907E-001	-4,83058E-004	...........	-327,62
	176	178,77	9,17921E-001	9,17901E-001	-4,82325E-004	...........	-327,62
	177	179,78	9,17913E-001	9,17888E-001	-4,84225E-004	...........	-327,62
	178	180,79	9,17906E-001	9,17886E-001	-4,84975E-004	...........	-327,62
	179	181,8	9,17899E-001	9,17880E-001	-4,85508E-004	...........	-327,62
	180	182,81	9,17892E-001	9,17873E-001	-4,82575E-004	...........	-327,62
	181	183,82	9,17886E-001	9,17867E-001	-4,77175E-004	...........	-327,62
	182	184,83	9,17880E-001	9,17855E-001	-4,80558E-004	...........	-327,62
	183	185,84	9,17873E-001	9,17855E-001	-4,80075E-004	...........	-327,62
	184	186,85	9,17867E-001	9,17848E-001	-4,73858E-004	...........	-327,62
	185	187,86	9,17860E-001	9,17840E-001	-4,76225E-004	...........	-327,62
	186	188,87	9,17854E-001	9,17843E-001	-4,72691E-004	...........	-327,62
	187	189,88	9,17849E-001	9,17836E-001	-4,73658E-004	...........	-327,62
	188	190,89	9,17844E-001	9,17832E-001	-4,76475E-004	...........	-327,62
	189	191,9	9,17840E-001	9,17826E-001	-4,73908E-004	...........	-327,62
	190	192,91	9,17836E-001	9,17821E-001	-4,76708E-004	...........	-327,62
	191	193,92	9,17832E-001	9,17815E-001	-4,76475E-004	...........	-327,62
	192	194,93	9,17827E-001	9,17808E-001	-4,81925E-004	...........	-327,62
	193	195,94	9,17821E-001	9,17797E-001	-4,81925E-004	...........	-327,62
	194	196,95	9,17815E-001	9,17797E-001	-4,73891E-004	...........	-327,62
	195	197,96	9,17808E-001	9,17791E-001	-4,77741E-004	...........	-327,62
	196	198,97	9,17802E-001	9,17786E-001	-4,79541E-004	...........	-327,62
	197	199,98	9,17796E-001	9,17778E-001	-4,71025E-004	...........	-327,62
	198	200,99	9,17791E-001	9,17774E-001	-4,69291E-004	...........	-327,62
	199	202	9,17786E-001	9,17766E-001	-4,77775E-004	...........	-327,62
	200	203,01	9,17780E-001	9,17764E-001	-4,69391E-004	...........	-327,62
	201	204,02	9,17774E-001	9,17755E-001	-4,62408E-004	...........	-327,62
	202	205,03	9,17769E-001	9,17757E-001	-4,71758E-004	...........	-327,62
	203	206,04	9,17763E-001	9,17750E-001	-4,69758E-004	...........	-327,62
	204	207,05	9,17759E-001	9,17747E-001	-4,70275E-004	...........	-327,62
	205	208,06	9,17755E-001	9,17738E-001	-4,74058E-004	...........	-327,62
	206	209,07	9,17751E-001	9,17733E-001	-4,74275E-004	...........	-327,62
	207	210,08	9,17746E-001	9,17727E-001	-4,71508E-004	...........	-327,62
	208	211,09	9,17740E-001	9,17723E-001	-4,70141E-004	...........	-327,62
	209	212,1	9,17734E-001	9,17714E-001	-4,70558E-004	...........	-327,62
	210	213,11	9,17728E-001	9,17717E-001	-4,73408E-004	...........	-327,62
	211	214,12	9,17723E-001	9,17713E-001	-4,70041E-004	...........	-327,62
	212	215,13	9,17719E-001	9,17712E-001	-4,67558E-004	...........	-327,62
	213	216,14	9,17716E-001	9,17709E-001	-4,71841E-004	...........	-327,62
	214	217,15	9,17714E-001	9,17702E-001	-4,76041E-004	...........	-327,62
	215	218,16	9,17711E-001	9,17697E-001	-4,73025E-004	...........	-327,62
	216	219,17	9,17707E-001	9,17692E-001	-4,74525E-004	...........	-327,62
	217	220,18	9,17703E-001	9,17687E-001	-4,72858E-004	...........	-327,62
	218	221,19	9,17698E-001	9,17679E-001	-4,72425E-004	...........	-327,62
	219	222,2	9,17692E-001	9,17674E-001	-4,76808E-004	...........	-327,62
	220	223,21	9,17686E-001	9,17667E-001	-4,71908E-004	...........	-327,62
	221	224,22	9,17680E-001	9,17664E-001	-4,66408E-004	...........	-327,62
	222	225,23	9,17674E-001	9,17654E-001	-4,72925E-004	...........	-327,62
	223	226,24	9,17669E-001	9,17657E-001	-4,74008E-004	...........	-327,62
	224	227,25	9,17663E-001	9,17651E-001	-4,70075E-004	...........	-327,62
	225	228,26	9,17659E-001	9,17647E-001	-4,70308E-004	...........	-327,62
	226	229,27	9,17655E-001	9,17643E-001	-4,73675E-004	...........	-327,62
	227	230,28	9,17652E-001	9,17639E-001	-4,70925E-004	...........	-327,62
	228	231,29	9,17648E-001	9,17637E-001	-4,76325E-004	...........	-327,62
	229	232,3	9,17644E-001	9,17634E-001	-4,75358E-004	...........	-327,62
	230	233,31	9,17641E-001	9,17631E-001	-4,77008E-004	...........	-327,62
	231	234,32	9,17637E-001	9,17623E-001	-4,78941E-004	...........	-327,62
	232	235,33	9,17634E-001	9,17618E-001	-4,78708E-004	...........	-327,62
	233	236,34	9,17629E-001	9,17611E-001	-4,72391E-004	...........	-327,62
	234	237,35	9,17624E-001	9,17607E-001	-4,74558E-004	...........	-327,62
	235	238,36	9,17618E-001	9,17603E-001	-4,78925E-004	...........	-327,62
	236	239,37	9,17613E-001	9,17593E-001	-4,72775E-004	...........	-327,62
	237	240,38	9,17607E-001	9,17596E-001	-4,71225E-004	...........	-327,62
	238	241,39	9,17602E-001	9,17583E-001	-4,75175E-004	...........	-327,62
	239	242,4	9,17597E-001	9,17589E-001	-4,70308E-004	...........	-327,62
	240	243,41	9,17593E-001	9,17577E-001	-4,73675E-004	...........	-327,62
	241	244,42	9,17588E-001	9,17580E-001	-4,69225E-004	...........	-327,62
	242	245,43	9,17585E-001	9,17576E-001	-4,72808E-004	...........	-327,62
	243	246,44	9,17581E-001	9,17571E-001	-4,73525E-004	...........	-327,62
	244	247,45	9,17578E-001	9,17568E-001	-4,75975E-004	...........	-327,62
	245	248,46	9,17575E-001	9,17568E-001	-4,72741E-004	...........	-327,62
	246	249,47	9,17572E-001	9,17563E-001	-4,70675E-004	...........	-327,62
	247	250,48	9,17570E-001	9,17559E-001	-4,71858E-004	...........	-327,62
	248	251,49	9,17566E-001	9,17553E-001	-4,65691E-004	...........	-327,62
	249	252,5	9,17563E-001	9,17545E-001	-4,72575E-004	...........	-327,62
	250	253,51	9,17558E-001	9,17546E-001	-4,69425E-004	...........	-327,62
	251	254,52	9,17554E-001	9,17541E-001	-4,68208E-004	...........	-327,62
	252	255,53	9,17549E-001	9,17531E-001	-4,72891E-004	...........	-327,62
	253	256,54	9,17544E-001	9,17530E-001	-4,71508E-004	...........	-327,62
	254	257,55	9,17540E-001	9,17528E-001	-4,69641E-004	...........	-327,62
	255	258,56	9,17535E-001	9,17523E-001	-4,68091E-004	...........	-327,62
	256	259,57	9,17531E-001	9,17522E-001	-4,70008E-004	...........	-327,62
	257	260,58	9,17527E-001	9,17511E-001	-4,69141E-004	...........	-327,62
	258	261,59	9,17523E-001	9,17508E-001	-4,78508E-004	...........	-327,62
	259	262,6	9,17519E-001	9,17503E-001	-4,75791E-004	...........	-327,62
	260	263,61	9,17514E-001	9,17498E-001	-4,74225E-004	...........	-327,62
	261	264,62	9,17508E-001	9,17500E-001	-4,77225E-004	...........	-327,62
	262	265,63	9,17504E-001	9,17491E-001	-4,67675E-004	...........	-327,62
	263	266,64	9,17500E-001	9,17486E-001	-4,71358E-004	...........	-327,62
	264	267,65	9,17496E-001	9,17489E-001	-4,71525E-004	...........	-327,62
	265	268,66	9,17493E-001	9,17484E-001	-4,68008E-004	...........	-327,62
	266	269,67	9,17490E-001	9,17484E-001	-4,69308E-004	...........	-327,62
	267	270,68	9,17487E-001	9,17483E-001	-4,68675E-004	...........	-327,62
	268	271,69	9,17485E-001	9,17476E-001	-4,66241E-004	...........	-327,62
	269	272,7	9,17483E-001	9,17473E-001	-4,74225E-004	...........	-327,62
	270	273,71	9,17481E-001	9,17466E-001	-4,74758E-004	...........	-327,62
	271	274,72	9,17477E-001	9,17459E-001	-4,72741E-004	...........	-327,62
	272	275,73	9,17472E-001	9,17455E-001	-4,68675E-004	...........	-327,62
	273	276,74	9,17466E-001	9,17446E-001	-4,71758E-004	...........	-327,62
	274	277,75	9,17461E-001	9,17448E-001	-4,72575E-004	...........	-327,62
	275	278,76	9,17455E-001	9,17442E-001	-4,74191E-004	...........	-327,62
	276	279,77	9,17450E-001	9,17439E-001	-4,67991E-004	...........	-327,62
	277	280,78	9,17446E-001	9,17433E-001	-4,70275E-004	...........	-327,62
	278	281,79	9,17443E-001	9,17430E-001	-4,65391E-004	...........	-327,62
	279	282,8	9,17439E-001	9,17424E-001	-4,61991E-004	...........	-327,62
	280	283,81	9,17434E-001	9,17421E-001	-4,70475E-004	...........	-327,62
	281	284,82	9,17430E-001	9,17421E-001	-4,69241E-004	...........	-327,62
	282	285,83	9,17426E-001	9,17418E-001	-4,67291E-004	...........	-327,62
	283	286,84	9,17423E-001	9,17412E-001	-4,66358E-004	...........	-327,62
	284	287,85	9,17420E-001	9,17406E-001	-4,71941E-004	...........	-327,62
	285	288,86	9,17416E-001	9,17400E-001	-4,62808E-004	...........	-327,62
	286	289,87	9,17412E-001	9,17396E-001	-4,65741E-004	...........	-327,62
	287	290,88	9,17407E-001	9,17393E-001	-4,69641E-004	...........	-327,62
	288	291,89	9,17402E-001	9,17390E-001	-4,62358E-004	...........	-327,62
	289	292,9	9,17397E-001	9,17388E-001	-4,62891E-004	...........	-327,62
	290	293,91	9,17394E-001	9,17385E-001	-4,59908E-004	...........	-327,62
	291	294,92	9,17391E-001	9,17379E-001	-4,67158E-004	...........	-327,62
	292	295,93	9,17388E-001	9,17376E-001	-4,66291E-004	...........	-327,62
	293	296,94	9,17384E-001	9,17366E-001	-4,55491E-004	...........	-327,62
	294	297,95	9,17379E-001	9,17365E-001	-4,62808E-004	...........	-327,62
	295	298,96	9,17374E-001	9,17358E-001	-4,59058E-004	...........	-327,62
	296	299,97	9,17369E-001	9,17352E-001	-4,63725E-004	...........	-327,62
	297	300,98	9,17364E-001	9,17351E-001	-4,59141E-004	...........	-327,62
	298	301,99	9,17359E-001	9,17348E-001	-4,63275E-004	...........	-327,62
	299	303	9,17355E-001	9,17338E-001	-4,66908E-004	...........	-327,62
	300	304,01	9,17350E-001	9,17333E-001	-4,63808E-004	...........	-327,62
	301	305,02	9,17346E-001	9,17331E-001	-4,64808E-004	...........	-327,62
	302	306,03	9,17340E-001	9,17328E-001	-4,68975E-004	...........	-327,62
	303	307,04	9,17336E-001	9,17325E-001	-4,69125E-004	...........	-327,62
	304	308,05	9,17331E-001	9,17321E-001	-4,63508E-004	...........	-327,62
	305	309,06	9,17328E-001	9,17313E-001	-4,65891E-004	...........	-327,62
	306	310,07	9,17324E-001	9,17317E-001	-4,63708E-004	...........	-327,62
	307	311,08	9,17321E-001	9,17311E-001	-4,56491E-004	...........	-327,62
	308	312,09	9,17318E-001	9,17309E-001	-4,65325E-004	...........	-327,62
	309	313,1	9,17315E-001	9,17300E-001	-4,64725E-004	...........	-327,62
	310	314,11	9,17311E-001	9,17299E-001	-4,58925E-004	...........	-327,62
	311	315,12	9,17307E-001	9,17295E-001	-4,64541E-004	...........	-327,62
	312	316,13	9,17303E-001	9,17288E-001	-4,61525E-004	...........	-327,62
	313	317,14	9,17299E-001	9,17289E-001	-4,60791E-004	...........	-327,62
	314	318,15	9,17295E-001	9,17279E-001	-4,63008E-004	...........	-327,62
	315	319,16	9,17290E-001	9,17279E-001	-4,60258E-004	...........	-327,62
	316	320,17	9,17286E-001	9,17276E-001	-4,60175E-004	...........	-327,62
	317	321,18	9,17283E-001	9,17269E-001	-4,68675E-004	...........	-327,62
	318	322,19	9,17279E-001	9,17262E-001	-4,65125E-004	...........	-327,62
	319	323,2	9,17274E-001	9,17259E-001	-4,67075E-004	...........	-327,62
	320	324,21	9,17269E-001	9,17253E-001	-4,66458E-004	...........	-327,62
	321	325,22	9,17264E-001	9,17250E-001	-4,67941E-004	...........	-327,62
	322	326,23	9,17259E-001	9,17244E-001	-4,68458E-004	...........	-327,62
	323	327,24	9,17254E-001	9,17240E-001	-4,57891E-004	...........	-327,62
	324	328,25	9,17250E-001	9,17238E-001	-4,62391E-004	...........	-327,62
	325	329,26	9,17245E-001	9,17228E-001	-4,60841E-004	...........	-327,62
	326	330,27	9,17241E-001	9,17229E-001	-4,60391E-004	...........	-327,62
	327	331,28	9,17236E-001	9,17228E-001	-4,59941E-004	...........	-327,62
	328	332,29	9,17232E-001	9,17216E-001	-4,63958E-004	...........	-327,62
	329	333,3	9,17229E-001	9,17219E-001	-4,60025E-004	...........	-327,62
	330	334,31	9,17225E-001	9,17217E-001	-4,65441E-004	...........	-327,62
	331	335,32	9,17221E-001	9,17214E-001	-4,61508E-004	...........	-327,62
	332	336,33	9,17219E-001	9,17210E-001	-4,67175E-004	...........	-327,62
	333	337,34	9,17216E-001	9,17207E-001	-4,64191E-004	...........	-327,62
	334	338,35	9,17214E-001	9,17205E-001	-4,64458E-004	...........	-327,62
	335	339,36	9,17211E-001	9,17198E-001	-4,65575E-004	...........	-327,62
	336	340,37	9,17208E-001	9,17197E-001	-4,62408E-004	...........	-327,62
	337	341,38	9,17204E-001	9,17189E-001	-4,64191E-004	...........	-327,62
	338	342,39	9,17200E-001	9,17186E-001	-4,59375E-004	...........	-327,62
	339	343,4	9,17196E-001	9,17183E-001	-4,60641E-004	...........	-327,62
	340	344,41	9,17191E-001	9,17178E-001	-4,66008E-004	...........	-327,62
	341	345,42	9,17187E-001	9,17176E-001	-4,62891E-004	...........	-327,62
	342	346,43	9,17183E-001	9,17169E-001	-4,70775E-004	...........	-327,62
	343	347,44	9,17179E-001	9,17165E-001	-4,65141E-004	...........	-327,62
	344	348,45	9,17175E-001	9,17158E-001	-4,63875E-004	...........	-327,62
	345	349,46	9,17170E-001	9,17158E-001	-4,66958E-004	...........	-327,62
	346	350,47	9,17165E-001	9,17151E-001	-4,59925E-004	...........	-327,62
	347	351,48	9,17161E-001	9,17150E-001	-4,66858E-004	...........	-327,62
	348	352,49	9,17157E-001	9,17144E-001	-4,67358E-004	...........	-327,62
	349	353,5	9,17153E-001	9,17139E-001	-4,66575E-004	...........	-327,62
	350	354,51	9,17149E-001	9,17140E-001	-4,61925E-004	...........	-327,62
	351	355,52	9,17145E-001	9,17136E-001	-4,66525E-004	...........	-327,62
	352	356,53	9,17142E-001	9,17131E-001	-4,59241E-004	...........	-327,62
	353	357,54	9,17139E-001	9,17129E-001	-4,67475E-004	...........	-327,62
	354	358,55	9,17135E-001	9,17125E-001	-4,66025E-004	...........	-327,62
	355	359,56	9,17132E-001	9,17119E-001	-4,64241E-004	...........	-327,62
	356	360,57	9,17129E-001	9,17120E-001	-4,70091E-004	...........	-327,62
	357	361,58	9,17125E-001	9,17115E-001	-4,67391E-004	...........	-327,62
	358	362,59	9,17122E-001	9,17111E-001	-4,63975E-004	...........	-327,62
	359	363,6	9,17118E-001	9,17109E-001	-4,71125E-004	...........	-327,62
	360	364,61	9,17115E-001	9,17107E-001	-4,65608E-004	...........	-327,62
	361	365,62	9,17112E-001	9,17099E-001	-4,66741E-004	...........	-327,62
	362	366,63	9,17109E-001	9,17096E-001	-4,62625E-004	...........	-327,62
	363	367,64	9,17105E-001	9,17089E-001	-4,68891E-004	...........	-327,62
	364	368,65	9,17101E-001	9,17091E-001	-4,63808E-004	...........	-327,62
	365	369,66	9,17096E-001	9,17090E-001	-4,65508E-004	...........	-327,62
	366	370,67	9,17093E-001	9,17088E-001	-4,64658E-004	...........	-327,62
	367	371,68	9,17091E-001	9,17078E-001	-4,67525E-004	...........	-327,62
	368	372,69	9,17089E-001	9,17081E-001	-4,63658E-004	...........	-327,62
	369	373,7	9,17086E-001	9,17080E-001	-4,67358E-004	...........	-327,62
	370	374,71	9,17083E-001	9,17065E-001	-4,67225E-004	...........	-327,62
	371	375,72	9,17080E-001	9,17060E-001	-4,74441E-004	...........	-327,62
	372	376,73	9,17075E-001	9,17049E-001	-4,68575E-004	...........	-327,62
	373	377,74	9,17068E-001	9,17059E-001	-4,71908E-004	...........	-327,62
	374	378,75	9,17062E-001	9,17047E-001	-4,71825E-004	...........	-327,62
	375	379,76	9,17057E-001	9,17043E-001	-4,64891E-004	...........	-327,62
	376	380,77	9,17053E-001	9,17043E-001	-4,63308E-004	...........	-327,62
	377	381,78	9,17049E-001	9,17030E-001	-4,64041E-004	...........	-327,62
	378	382,79	9,17044E-001	9,17023E-001	-4,64341E-004	...........	-327,62
	379	383,8	9,17039E-001	9,17044E-001	-4,62958E-004	...........	-327,62
	380	384,81	9,17035E-001	9,17044E-001	-4,62491E-004	...........	-327,62
	381	385,82	9,17035E-001	9,17034E-001	-4,62158E-004	...........	-327,62
	382	386,83	9,17036E-001	9,17027E-001	-4,62925E-004	...........	-327,62
	383	387,84	9,17037E-001	9,17032E-001	-4,63791E-004	...........	-327,62
	384	388,85	9,17035E-001	9,17031E-001	-4,63041E-004	...........	-327,62
	385	389,86	9,17032E-001	9,17021E-001	-4,65891E-004	...........	-327,62
	386	390,87	9,17030E-001	9,17014E-001	-4,64241E-004	...........	-327,62
	387	391,88	9,17027E-001	9,17018E-001	-4,65708E-004	...........	-327,62
	388	392,89	9,17023E-001	9,17014E-001	-4,60591E-004	...........	-327,62
	389	393,9	9,17019E-001	9,17016E-001	-4,65358E-004	...........	-327,62
	390	394,91	9,17017E-001	9,17004E-001	-4,60108E-004	...........	-327,62
	391	395,92	9,17014E-001	9,17003E-001	-4,61575E-004	...........	-327,62
	392	396,93	9,17011E-001	9,16999E-001	-4,70425E-004	...........	-327,62
	393	397,94	9,17008E-001	9,16994E-001	-4,65608E-004	...........	-327,62
	394	398,95	9,17004E-001	9,16995E-001	-4,68525E-004	...........	-327,62
	395	399,96	9,17000E-001	9,16986E-001	-4,78341E-004	...........	-327,62
	396	400,97	9,16996E-001	9,16979E-001	-4,74925E-004	...........	-327,62
	397	401,98	9,16992E-001	9,16985E-001	-4,65008E-004	...........	-327,62
	398	402,99	9,16987E-001	9,16978E-001	-4,67441E-004	...........	-327,62
	399	404	9,16984E-001	9,16971E-001	-4,64991E-004	...........	-327,62
	400	405,01	9,16981E-001	9,16971E-001	-4,65191E-004	...........	-327,62
	401	406,02	9,16978E-001	9,16970E-001	-4,69258E-004	...........	-327,62
	402	407,03	9,16974E-001	9,16954E-001	-4,69775E-004	...........	-327,62
	403	408,04	9,16970E-001	9,16959E-001	-4,64975E-004	...........	-327,62
	404	409,05	9,16966E-001	9,16957E-001	-4,66741E-004	...........	-327,62
	405	410,06	9,16962E-001	9,16951E-001	-4,67975E-004	...........	-327,62
	406	411,07	9,16958E-001	9,16947E-001	-4,65475E-004	...........	-327,62
	407	412,08	9,16955E-001	9,16946E-001	-4,68825E-004	...........	-327,62
	408	413,09	9,16952E-001	9,16938E-001	-4,61158E-004	...........	-327,62
	409	414,1	9,16948E-001	9,16939E-001	-4,62941E-004	...........	-327,62
	410	415,11	9,16944E-001	9,16934E-001	-4,64658E-004	...........	-327,62
	411	416,12	9,16941E-001	9,16931E-001	-4,62591E-004	...........	-327,62
	412	417,13	9,16938E-001	9,16932E-001	-4,74158E-004	...........	-327,62
	413	418,14	9,16935E-001	9,16924E-001	-4,69275E-004	...........	-327,62
	414	419,15	9,16932E-001	9,16915E-001	-4,69491E-004	...........	-327,62
	415	420,16	9,16929E-001	9,16918E-001	-4,64691E-004	...........	-327,62
	416	421,17	9,16924E-001	9,16915E-001	-4,67925E-004	...........	-327,62
	417	422,18	9,16920E-001	9,16915E-001	-4,71725E-004	...........	-327,62
	418	423,19	9,16917E-001	9,16910E-001	-4,67191E-004	...........	-327,62
	419	424,2	9,16915E-001	9,16904E-001	-4,71558E-004	...........	-327,62
	420	425,21	9,16913E-001	9,16904E-001	-4,67541E-004	...........	-327,62
	421	426,22	9,16910E-001	9,16900E-001	-4,64425E-004	...........	-327,62
	422	427,23	9,16907E-001	9,16896E-001	-4,59125E-004	...........	-327,62
	423	428,24	9,16903E-001	9,16891E-001	-4,74708E-004	...........	-327,62
	424	429,25	9,16900E-001	9,16891E-001	-4,65225E-004	...........	-327,62
	425	430,26	9,16896E-001	9,16878E-001	-4,67075E-004	...........	-327,62
	426	431,27	9,16892E-001	9,16879E-001	-4,63525E-004	...........	-327,62
	427	432,28	9,16888E-001	9,16876E-001	-4,69108E-004	...........	-327,62
	428	433,29	9,16883E-001	9,16874E-001	-4,71075E-004	...........	-327,62
	429	434,3	9,16880E-001	9,16875E-001	-4,67508E-004	...........	-327,62
	430	435,31	9,16877E-001	9,16869E-001	-4,68941E-004	...........	-327,62
	431	436,32	9,16875E-001	9,16868E-001	-4,77191E-004	...........	-327,62
	432	437,33	9,16873E-001	9,16857E-001	-4,73991E-004	...........	-327,62
	433	438,34	9,16870E-001	9,16860E-001	-4,68025E-004	...........	-327,62
	434	439,35	9,16866E-001	9,16854E-001	-4,73575E-004	...........	-327,62
	435	440,36	9,16862E-001	9,16855E-001	-4,74091E-004	...........	-327,62
	436	441,37	9,16859E-001	9,16852E-001	-4,69875E-004	...........	-327,62
	437	442,38	9,16856E-001	9,16849E-001	-4,79341E-004	...........	-327,62
	438	443,39	9,16854E-001	9,16842E-001	-4,73525E-004	...........	-327,62
	439	444,4	9,16851E-001	9,16841E-001	-4,71858E-004	...........	-327,62
	440	445,41	9,16848E-001	9,16842E-001	-4,70441E-004	...........	-327,62
	441	446,42	9,16845E-001	9,16825E-001	-4,77225E-004	...........	-327,62
	442	447,43	9,16841E-001	9,16834E-001	-4,75041E-004	...........	-327,62
	443	448,44	9,16837E-001	9,16833E-001	-4,73908E-004	...........	-327,62
	444	449,45	9,16834E-001	9,16830E-001	-4,76675E-004	...........	-327,62
	445	450,46	9,16832E-001	9,16828E-001	-4,75041E-004	...........	-327,62
	446	451,47	9,16831E-001	9,16823E-001	-4,75975E-004	...........	-327,62
	447	452,48	9,16829E-001	9,16818E-001	-4,72891E-004	...........	-327,62
	448	453,49	9,16827E-001	9,16816E-001	-4,76925E-004	...........	-327,62
	449	454,5	9,16823E-001	9,16816E-001	-4,71608E-004	...........	-327,62
	450	455,51	9,16820E-001	9,16808E-001	-4,73791E-004	...........	-327,62
	451	456,52	9,16816E-001	9,16798E-001	-4,68058E-004	...........	-327,62
	452	457,53	9,16813E-001	9,16801E-001	-4,74925E-004	...........	-327,62
	453	458,54	9,16808E-001	9,16799E-001	-4,73441E-004	...........	-327,62
	454	459,55	9,16804E-001	9,16799E-001	-4,71675E-004	...........	-327,62
	455	460,56	9,16801E-001	9,16791E-001	-4,65375E-004	...........	-327,62
	456	461,57	9,16799E-001	9,16789E-001	-4,70475E-004	...........	-327,62
	457	462,58	9,16796E-001	9,16783E-001	-4,69191E-004	...........	-327,62
	458	463,59	9,16793E-001	9,16782E-001	-4,71608E-004	...........	-327,62
	459	464,6	9,16789E-001	9,16778E-001	-4,69841E-004	...........	-327,62
	460	465,61	9,16785E-001	9,16769E-001	-4,73075E-004	...........	-327,62
	461	466,62	9,16781E-001	9,16770E-001	-4,72691E-004	...........	-327,62
	462	467,63	9,16777E-001	9,16765E-001	-4,72441E-004	...........	-327,62
	463	468,64	9,16773E-001	9,16767E-001	-4,71825E-004	...........	-327,62
	464	469,65	9,16770E-001	9,16761E-001	-4,72575E-004	...........	-327,62
	465	470,66	9,16767E-001	9,16760E-001	-4,70208E-004	...........	-327,62
	466	471,67	9,16765E-001	9,16757E-001	-4,70525E-004	...........	-327,62
	467	472,68	9,16762E-001	9,16753E-001	-4,67941E-004	...........	-327,62
	468	473,69	9,16760E-001	9,16745E-001	-4,67925E-004	...........	-327,62
	469	474,7	9,16756E-001	9,16738E-001	-4,68991E-004	...........	-327,62
	470	475,71	9,16752E-001	9,16736E-001	-4,65708E-004	...........	-327,62
	471	476,72	9,16746E-001	9,16733E-001	-4,68525E-004	...........	-327,62
	472	477,73	9,16741E-001	9,16728E-001	-4,69775E-004	...........	-327,62
	473	478,74	9,16737E-001	9,16716E-001	-4,65525E-004	...........	-327,62
	474	479,75	9,16732E-001	9,16718E-001	-4,67208E-004	...........	-327,62
	475	480,76	9,16727E-001	9,16715E-001	-4,68058E-004	...........	-327,62
	476	481,77	9,16722E-001	9,16709E-001	-4,67841E-004	...........	-327,62
	477	482,78	9,16718E-001	9,16709E-001	-4,67791E-004	...........	-327,62
	478	483,79	9,16714E-001	9,16704E-001	-4,61758E-004	...........	-327,62
	479	484,8	9,16711E-001	9,16702E-001	-4,65908E-004	...........	-327,62
	480	485,81	9,16708E-001	9,16693E-001	-4,65008E-004	...........	-327,62
	481	486,82	9,16704E-001	9,16690E-001	-4,67341E-004	...........	-327,62
	482	487,83	9,16700E-001	9,16686E-001	-4,71375E-004	...........	-327,62
	483	488,84	9,16695E-001	9,16687E-001	-4,68541E-004	...........	-327,62
	484	489,85	9,16691E-001	9,16682E-001	-4,68791E-004	...........	-327,62
	485	490,86	9,16688E-001	9,16674E-001	-4,67258E-004	...........	-327,62
	486	491,87	9,16685E-001	9,16675E-001	-4,74991E-004	...........	-327,62
	487	492,88	9,16681E-001	9,16668E-001	-4,67475E-004	...........	-327,62
	488	493,89	9,16677E-001	9,16662E-001	-4,67991E-004	...........	-327,62
	489	494,9	9,16673E-001	9,16660E-001	-4,67391E-004	...........	-327,62
	490	495,91	9,16669E-001	9,16659E-001	-4,67908E-004	...........	-327,62
	491	496,92	9,16664E-001	9,16657E-001	-4,68708E-004	...........	-327,62
	492	497,93	9,16661E-001	9,16651E-001	-4,65908E-004	...........	-327,62
	493	498,94	9,16659E-001	9,16651E-001	-4,66691E-004	...........	-327,62
	494	499,95	9,16656E-001	9,16645E-001	-4,72641E-004	...........	-327,62
	495	500,96	9,16653E-001	9,16644E-001	-4,67291E-004	...........	-327,62
	496	501,97	9,16650E-001	9,16640E-001	-4,69791E-004	...........	-327,62
	497	502,98	9,16647E-001	9,16628E-001	-4,75241E-004	...........	-327,62
	498	503,99	9,16643E-001	9,16632E-001	-4,69141E-004	...........	-327,62
	499	505	9,16638E-001	9,16625E-001	-4,70675E-004	...........	-327,62
	500	506,01	9,16634E-001	9,16626E-001	-4,63858E-004	...........	-327,62
	501	507,02	9,16630E-001	9,16619E-001	-4,69408E-004	...........	-327,62
	502	508,03	9,16627E-001	9,16621E-001	-4,64408E-004	...........	-327,62
	503	509,04	9,16624E-001	9,16611E-001	-4,67608E-004	...........	-327,62
	504	510,05	9,16621E-001	9,16606E-001	-4,66825E-004	...........	-327,62
	505	511,06	9,16618E-001	9,16609E-001	-4,69975E-004	...........	-327,62
	506	512,07	9,16614E-001	9,16602E-001	-4,67825E-004	...........	-327,62
	507	513,08	9,16610E-001	9,16603E-001	-4,60941E-004	...........	-327,62
	508	514,09	9,16607E-001	9,16601E-001	-4,68891E-004	...........	-327,62
	509	515,1	9,16605E-001	9,16600E-001	-4,67908E-004	...........	-327,62
	510	516,11	9,16603E-001	9,16596E-001	-4,64008E-004	...........	-327,62
	511	517,12	9,16601E-001	9,16593E-001	-4,71741E-004	...........	-327,62
	512	518,13	9,16599E-001	9,16585E-001	-4,68208E-004	...........	-327,62
	513	519,14	9,16596E-001	9,16584E-001	-4,71408E-004	...........	-327,62
	514	520,15	9,16592E-001	9,16583E-001	-4,72875E-004	...........	-327,62
	515	521,16	9,16588E-001	9,16580E-001	-4,64175E-004	...........	-327,62
	516	522,17	9,16585E-001	9,16576E-001	-4,67575E-004	...........	-327,62
	517	523,18	9,16582E-001	9,16569E-001	-4,64875E-004	...........	-327,62
	518	524,19	9,16579E-001	9,16569E-001	-4,70975E-004	...........	-327,62
	519	525,2	9,16576E-001	9,16561E-001	-4,66425E-004	...........	-327,62
	520	526,21	9,16572E-001	9,16561E-001	-4,68925E-004	...........	-327,62
	521	527,22	9,16568E-001	9,16563E-001	-4,70225E-004	...........	-327,62
	522	528,23	9,16565E-001	9,16556E-001	-4,68408E-004	...........	-327,62
	523	529,24	9,16562E-001	9,16557E-001	-4,68075E-004	...........	-327,62
	524	530,25	9,16560E-001	9,16551E-001	-4,80825E-004	...........	-327,62
	525	531,26	9,16558E-001	9,16552E-001	-4,69958E-004	...........	-327,62
	526	532,27	9,16556E-001	9,16549E-001	-4,70308E-004	...........	-327,62
	527	533,28	9,16554E-001	9,16547E-001	-4,69041E-004	...........	-327,62
	528	534,29	9,16551E-001	9,16543E-001	-4,72741E-004	...........	-327,62
	529	535,3	9,16549E-001	9,16537E-001	-4,76091E-004	...........	-327,62
	530	536,31	9,16546E-001	9,16540E-001	-4,75575E-004	...........	-327,62
	531	537,32	9,16543E-001	9,16537E-001	-4,76058E-004	...........	-327,62
	532	538,33	9,16541E-001	9,16533E-001	-4,73408E-004	...........	-327,62
	533	539,34	9,16539E-001	9,16531E-001	-4,68408E-004	...........	-327,62
	534	540,35	9,16536E-001	9,16529E-001	-4,69041E-004	...........	-327,62
	535	541,36	9,16534E-001	9,16525E-001	-4,66858E-004	...........	-327,62
	536	542,37	9,16532E-001	9,16525E-001	-4,66725E-004	...........	-327,62
	537	543,38	9,16529E-001	9,16519E-001	-4,69708E-004	...........	-327,62
	538	544,39	9,16526E-001	9,16516E-001	-4,70841E-004	...........	-327,62
	539	545,4	9,16523E-001	9,16513E-001	-4,73708E-004	...........	-327,62
	540	546,41	9,16520E-001	9,16505E-001	-4,73558E-004	...........	-327,62
	541	547,42	9,16516E-001	9,16502E-001	-4,68541E-004	...........	-327,62
	542	548,43	9,16512E-001	9,16503E-001	-4,65841E-004	...........	-327,62
	543	549,44	9,16508E-001	9,16503E-001	-4,69991E-004	...........	-327,62
	544	550,45	9,16505E-001	9,16502E-001	-4,69175E-004	...........	-327,62
	545	551,46	9,16503E-001	9,16496E-001	-4,69108E-004	...........	-327,62
	546	552,47	9,16502E-001	9,16494E-001	-4,65641E-004	...........	-327,62
	547	553,48	9,16500E-001	9,16488E-001	-4,68841E-004	...........	-327,62
	548	554,49	9,16497E-001	9,16483E-001	-4,76591E-004	...........	-327,62
	549	555,5	9,16493E-001	9,16480E-001	-4,69775E-004	...........	-327,62
	550	556,51	9,16489E-001	9,16474E-001	-4,74475E-004	...........	-327,62
	551	557,52	9,16484E-001	9,16478E-001	-4,76191E-004	...........	-327,62
	552	558,53	9,16480E-001	9,16475E-001	-4,78925E-004	...........	-327,62
	553	559,54	9,16478E-001	9,16475E-001	-4,77825E-004	...........	-327,62
	554	560,55	9,16476E-001	9,16470E-001	-4,72558E-004	...........	-327,62
	555	561,56	9,16475E-001	9,16469E-001	-4,70025E-004	...........	-327,62
	556	562,57	9,16474E-001	9,16467E-001	-4,70308E-004	...........	-327,62
	557	563,58	9,16472E-001	9,16465E-001	-4,68791E-004	...........	-327,62
	558	564,59	9,16470E-001	9,16464E-001	-4,75058E-004	...........	-327,62
	559	565,6	9,16467E-001	9,16457E-001	-4,69841E-004	...........	-327,62
	560	566,61	9,16465E-001	9,16459E-001	-4,68041E-004	...........	-327,62
	561	567,62	9,16462E-001	9,16453E-001	-4,76541E-004	...........	-327,62
	562	568,63	9,16460E-001	9,16455E-001	-4,72175E-004	...........	-327,62
	563	569,64	9,16457E-001	9,16450E-001	-4,76891E-004	...........	-327,62
	564	570,65	9,16455E-001	9,16452E-001	-4,80641E-004	...........	-327,62
	565	571,66	9,16453E-001	9,16446E-001	-4,79591E-004	...........	-327,62
	566	572,67	9,16451E-001	9,16444E-001	-4,75041E-004	...........	-327,62
	567	573,68	9,16449E-001	9,16441E-001	-4,74858E-004	...........	-327,62
	568	574,69	9,16447E-001	9,16436E-001	-4,71691E-004	...........	-327,62
	569	575,7	9,16444E-001	9,16436E-001	-4,68741E-004	...........	-327,62
	570	576,71	9,16441E-001	9,16433E-001	-4,67225E-004	...........	-327,62
	571	577,72	9,16438E-001	9,16427E-001	-4,74158E-004	...........	-327,62
	572	578,73	9,16435E-001	9,16427E-001	-4,77008E-004	...........	-327,62
	573	579,74	9,16432E-001	9,16424E-001	-4,67708E-004	...........	-327,62
	574	580,75	9,16429E-001	9,16427E-001	-4,71125E-004	...........	-327,62
	575	581,76	9,16427E-001	9,16421E-001	-4,70475E-004	...........	-327,62
	576	582,77	9,16426E-001	9,16419E-001	-4,65925E-004	...........	-327,62
	577	583,78	9,16424E-001	9,16417E-001	-4,74225E-004	...........	-327,62
	578	584,79	9,16422E-001	9,16414E-001	-4,69791E-004	...........	-327,62
	579	585,8	9,16420E-001	9,16412E-001	-4,73541E-004	...........	-327,62
	580	586,81	9,16417E-001	9,16406E-001	-4,74341E-004	...........	-327,62
	581	587,82	9,16414E-001	9,16403E-001	-4,73975E-004	...........	-327,62
	582	588,83	9,16411E-001	9,16400E-001	-4,74058E-004	...........	-327,62
	583	589,84	9,16407E-001	9,16401E-001	-4,77508E-004	...........	-327,62
	584	590,85	9,16404E-001	9,16398E-001	-4,78958E-004	...........	-327,62
	585	591,86	9,16402E-001	9,16394E-001	-4,71275E-004	...........	-327,62
	586	592,87	9,16400E-001	9,16390E-001	-4,74175E-004	...........	-327,62
	587	593,88	9,16397E-001	9,16388E-001	-4,77125E-004	...........	-327,62
	588	594,89	9,16394E-001	9,16386E-001	-4,77925E-004	...........	-327,62
	589	595,9	9,16391E-001	9,16380E-001	-4,76458E-004	...........	-327,62
	590	596,91	9,16388E-001	9,16380E-001	-4,78391E-004	...........	-327,62
	591	597,92	9,16385E-001	9,16376E-001	-4,70941E-004	...........	-327,62
	592	598,93	9,16382E-001	9,16373E-001	-4,76341E-004	...........	-327,62
	593	599,94	9,16379E-001	9,16373E-001	-4,73975E-004	...........	-327,62
